con,Omega,ygross,ynet,inv,Eind,scc,Dam,Emissions
77.22157,0.0017051001,105.17594,104.996605,27.629929,28.87916,46.695705,0.17933552,31.479158
79.68794,0.0018450696,108.62867,108.42823,28.584824,29.197313,47.88444,0.20042744,31.738195
82.250206,0.0019917882,112.18456,111.96111,29.544449,29.512663,49.166965,0.22344789,31.995773
84.89715,0.0021453528,115.83961,115.59109,30.515345,29.81312,50.52508,0.24851683,32.23977
87.613045,0.0023058574,119.59177,119.316,31.511726,30.111382,51.95184,0.27576154,32.482857
90.411606,0.0024733923,123.43873,123.133415,32.517147,30.400726,53.45422,0.30531237,32.718277
93.284966,0.0026480437,127.37862,127.04132,33.537262,30.676674,55.025536,0.33730415,32.941532
96.22892,0.0028298951,131.41031,131.03842,34.575172,30.94268,56.66144,0.37187737,33.15604
99.24554,0.0030190235,135.53055,135.12138,35.625393,31.196482,58.362823,0.4091699,33.359512
102.32808,0.0032155025,139.73813,139.2888,36.69315,31.436014,60.126595,0.44932827,33.549866
105.48132,0.0034194018,144.03188,143.53937,37.771988,31.655375,61.954697,0.49250287,33.721165
108.702194,0.0036307862,148.41238,147.87354,38.86586,31.8619,63.84668,0.53885365,33.88072
111.98857,0.0038497124,152.87503,152.28651,39.971912,32.052013,65.80185,0.5885249,34.02493
115.330185,0.0040762336,157.41849,156.77682,41.09877,32.22336,67.80778,0.6416745,34.151413
118.73068,0.0043103974,162.04393,161.34546,42.2438,32.37626,69.868324,0.69847375,34.26048
122.188614,0.004552243,166.75214,165.99303,43.409164,32.5139,71.98215,0.7590962,34.355274
125.69757,0.0048018056,171.54134,170.71762,44.59927,32.63427,74.148544,0.8237081,34.433777
129.27415,0.0050591137,176.41211,175.5196,45.79745,32.732265,76.378746,0.89248884,34.490852
132.91267,0.0053241877,181.36621,180.40059,47.011204,32.811916,78.668724,0.9656277,34.530518
136.60956,0.0055970447,186.39903,185.35573,48.238956,32.868584,81.01462,1.0432837,34.548115
140.35841,0.005877689,191.51012,190.38446,49.4869,32.90756,83.41421,1.1256368,34.5489
144.15955,0.0061661224,196.70119,195.48831,50.756176,32.928932,85.86576,1.2128836,34.53295
148.01976,0.006462336,201.9717,200.66649,52.03912,32.931488,88.37757,1.3052089,34.499035
151.93599,0.0067663174,207.32217,205.91937,53.3384,32.907898,90.94455,1.4028076,34.4398
155.90694,0.007078046,212.75323,211.24736,54.65556,32.857536,93.57161,1.5058771,34.354607
159.93503,0.00739749,218.26428,216.64969,55.987675,32.784573,96.25647,1.6146079,34.24761
164.0193,0.0077246088,223.85385,222.1247,57.334713,32.695904,99.000565,1.7291836,34.12567
168.1443,0.008059358,229.52284,227.67303,58.71252,32.589485,101.79306,1.8498068,33.986748
172.33241,0.008401683,235.27138,233.2947,60.09922,32.47051,104.64773,1.9766753,33.835995
176.57094,0.008751519,241.10048,238.99048,61.507305,32.33009,107.557556,2.1099956,33.66453
180.8614,0.009108802,247.01048,244.7605,62.93501,32.165703,110.52415,2.2499695,33.4698
185.20839,0.009473456,253.00096,250.60416,64.37732,31.979914,113.550735,2.3967931,33.25436
189.60625,0.009845399,259.0709,256.52023,65.838585,31.772392,116.63784,2.5506563,33.017857
194.0591,0.010224535,265.22278,262.511,67.31735,31.547491,119.78458,2.7117796,32.76464
198.56006,0.010610768,271.45514,268.5748,68.81821,31.300856,122.98445,2.8803475,32.49033
203.11212,0.011003987,277.7702,274.71362,70.340004,31.031654,126.24404,3.0565798,32.194084
207.71739,0.011404082,284.16833,280.92767,71.88109,30.743637,129.56694,3.240679,31.879633
212.38368,0.0118109295,290.6484,287.21558,73.43318,30.443022,132.95776,3.432828,31.553188
217.09209,0.012224394,297.21213,293.5789,75.01629,30.127312,136.39706,3.6332378,31.212238
221.85152,0.01264434,303.86047,300.01834,76.62115,29.78927,139.90424,3.8421152,30.84953
226.67651,0.013070632,310.5916,306.53198,78.23152,29.431587,143.4827,4.0596285,30.467737
231.55276,0.013503114,317.4037,313.11777,79.859985,29.056343,147.11858,4.2859387,30.068932
236.47894,0.0139416335,324.3019,319.7806,81.51253,28.663582,150.81932,4.5212984,29.653147
241.45558,0.014386025,331.28375,326.51788,83.185234,28.248085,154.58263,4.7658563,29.215149
246.4747,0.014836116,338.3489,333.3291,84.88586,27.812769,158.40268,5.019783,28.757845
251.53883,0.015291729,345.50168,340.21835,86.61619,27.360003,162.2801,5.2833185,28.283592
256.6642,0.01575268,352.7428,347.1862,88.36022,26.8892,166.22443,5.556645,27.791788
261.84595,0.016218781,360.07272,354.2328,90.12363,26.40393,170.24104,5.8399405,27.285995
267.0695,0.016689828,367.48956,361.3562,91.91825,25.900026,174.32,6.133337,26.762033
272.36176,0.017165622,374.99225,368.55527,93.7164,25.381023,178.47885,6.436975,26.223433
277.71002,0.017645951,382.57892,375.82797,95.52964,24.850765,182.70316,6.75097,25.67402
283.1111,0.0181306,390.25394,383.17844,97.36449,24.30665,186.99507,7.0755386,25.111187
288.56503,0.018619355,398.01724,390.60645,99.220474,23.747429,191.35481,7.410825,24.533674
294.0601,0.019111985,405.86758,398.1107,101.1078,23.172592,195.77258,7.7569346,23.940958
299.60706,0.019608272,413.8064,405.69238,103.01553,22.575716,200.25409,8.114028,23.326612
305.21915,0.020107977,421.8364,413.35413,104.93311,21.958776,204.82353,8.482277,22.692596
310.8644,0.020610856,429.95493,421.09317,106.8916,21.33112,209.44789,8.861739,22.048258
316.56467,0.021116668,438.16397,428.9114,108.87045,20.690083,214.13991,9.252563,21.390913
322.33066,0.02162516,446.46497,436.8101,110.85914,20.03176,218.9183,9.654875,20.716654
328.15244,0.022136083,454.8572,444.78848,112.86658,19.3554,223.76633,10.068757,20.024721
334.01984,0.022649173,463.34015,452.84586,114.90281,18.664145,228.67961,10.494271,19.318249
339.94275,0.02316416,471.91254,460.98108,116.956055,17.955528,233.66739,10.931457,18.594759
345.93137,0.023680786,480.57422,469.19385,119.01326,17.219608,238.73744,11.380375,17.844305
351.9718,0.02419877,489.32892,477.48773,121.09497,16.470694,243.87994,11.841158,17.081184
358.05994,0.024717828,498.17075,485.85706,123.19969,15.7092705,249.08606,12.313698,16.305882
364.18835,0.025237678,507.101,494.30298,125.33249,14.921646,254.34889,12.798053,15.50469
370.3773,0.025758019,516.12885,502.83438,127.48906,14.137422,259.69897,13.2944565,14.707209
376.6292,0.026278563,525.24304,511.4404,129.65865,13.365241,265.1378,13.802631,13.922073
382.9303,0.02679901,534.4493,520.1265,131.85541,12.585231,270.63626,14.322711,13.129403
389.2873,0.027319077,543.7486,528.8939,134.0722,11.792524,276.20706,14.854709,12.324323
395.70203,0.027838467,553.1417,537.74316,136.30779,10.987196,281.85645,15.398619,11.506902
402.17877,0.02835689,562.6302,546.6758,138.56009,10.1724205,287.58234,15.954442,10.680309
408.71298,0.028874049,572.2096,555.68756,140.82738,9.341266,293.38568,16.522007,9.837606
415.31604,0.029389644,581.87476,564.7737,143.08533,8.4669695,299.2802,17.101093,8.952025
421.9692,0.02990337,591.6261,573.93445,145.35565,7.5604587,305.24338,17.691614,8.034486
428.68378,0.030414917,601.46765,583.174,147.64064,6.655085,311.2863,18.293589,7.118334
435.4602,0.030923955,611.3973,592.4904,149.93849,5.7517915,317.4116,18.906822,6.204507
442.2977,0.03143015,621.4117,601.8806,152.24707,4.851169,323.61548,19.531063,5.2935915
449.20523,0.03193319,631.5111,611.345,154.55638,3.948764,329.8987,20.16616,4.3811264
456.19025,0.032432746,641.6948,620.88293,156.86081,3.0517468,336.27878,20.811924,3.4742782
463.23657,0.032928508,651.95886,630.4908,159.1757,2.1677299,342.7272,21.46803,2.5806537
470.35803,0.033420153,662.3036,640.1693,161.48526,1.2892193,349.26373,22.134287,1.6927543
477.54904,0.033907387,672.7274,649.917,163.8012,0.43694887,355.88565,22.81043,0.8313085
484.83908,0.03438991,683.2256,659.72955,166.22716,0.0,362.62366,23.496067,0.3853927
492.22476,0.03486743,693.81854,669.6269,168.79611,0.0,369.4636,24.19167,0.3766298
499.68884,0.035339855,704.526,679.6281,171.39082,0.0,376.39706,24.897846,0.36806604
507.23898,0.035807297,715.3454,689.7308,174.00131,0.0,383.43805,25.614588,0.35969707
514.86237,0.03626766,726.27246,699.9323,176.6378,0.0,390.5704,26.340204,0.35151836
522.5566,0.03672105,737.3083,710.2335,179.30338,0.0,397.79364,27.074734,0.3435256
530.3293,0.037167564,748.451,720.63293,181.98909,0.0,405.11057,27.8181,0.33571473
538.1844,0.037607294,759.7018,731.1315,184.69185,0.0,412.52554,28.570332,0.3280814
546.12164,0.03804034,771.06055,741.7291,187.41193,0.0,420.04092,29.331406,0.32062155
554.1341,0.038466793,782.5221,752.42096,190.15129,0.0,427.6473,30.101116,0.31333125
562.21136,0.03888675,794.0814,763.2022,192.91556,0.0,435.33636,30.879246,0.30620688
570.36633,0.039300308,805.7423,774.0764,195.69547,0.0,443.11694,31.66592,0.29924443
578.5812,0.03970755,817.5036,785.0426,198.50784,0.0,450.98087,32.461067,0.2924403
586.8695,0.04010857,829.36975,796.10486,201.34303,0.0,458.9394,33.264835,0.28579083
595.2422,0.04050346,841.34186,807.26465,204.19164,0.0,466.9995,34.07726,0.2792926
603.6613,0.040892307,853.4192,818.5209,207.09041,0.0,475.12512,34.89828,0.27294213
612.139,0.041275185,865.5996,829.8717,210.02556,0.0,483.32675,35.727783,0.26673612
620.7025,0.0416522,877.8826,841.3169,212.96933,0.0,491.63467,36.565742,0.26067114
629.34644,0.042023424,890.26495,852.85297,215.92377,0.0,500.0443,37.411987,0.2547441
638.0681,0.04238893,902.74713,864.4808,218.89236,0.0,508.54938,38.266487,0.2489518
646.8677,0.042748816,915.3285,876.19934,221.87413,0.0,517.1491,39.12921,0.24329126
655.7457,0.04310316,928.0084,888.00836,224.86809,0.0,525.8442,40.000095,0.23775938
664.6626,0.043452024,940.7872,899.90814,227.9139,0.0,534.5924,40.87911,0.23235333
673.6051,0.043795507,953.66516,911.8988,231.0253,0.0,543.38434,41.766247,0.22707012
682.63043,0.044133678,966.64386,923.98236,234.14682,0.0,552.28845,42.66155,0.22190705
691.73413,0.044466607,979.7238,936.15875,237.28285,0.0,561.2895,43.56499,0.21686128
700.9158,0.044794366,992.9041,948.4275,240.43341,0.0,570.3873,44.47651,0.21193029
710.1641,0.045117036,1006.18494,960.7888,243.60991,0.0,579.5743,45.39608,0.20711152
719.47,0.04543469,1019.5678,973.2441,246.82275,0.0,588.8424,46.32375,0.20240226
728.8586,0.045747403,1033.0537,985.7942,250.04794,0.0,598.2166,47.259525,0.1978001
738.3107,0.046055246,1046.6434,998.44,253.30501,0.0,607.6799,48.20342,0.1933026
747.8234,0.046358272,1060.3322,1011.177,256.5928,0.0,617.22626,49.155167,0.1889073
757.4166,0.046656556,1074.1224,1024.0076,259.89362,0.0,626.8782,50.11485,0.18461207
767.08746,0.04695018,1088.0156,1036.9331,263.21182,0.0,636.62836,51.08253,0.1804144
776.8156,0.047239196,1102.0099,1049.9518,266.56577,0.0,646.45,52.05806,0.17631216
786.60443,0.04752367,1116.1008,1063.0596,269.94803,0.0,656.35266,53.041206,0.17230324
796.4723,0.047803685,1130.2886,1076.2567,273.34058,0.0,666.3676,54.031963,0.16838545
806.4118,0.04807928,1144.5747,1089.5446,276.7522,0.0,676.47394,55.030327,0.16455683
816.4218,0.04835053,1158.9589,1102.9226,280.1833,0.0,686.66876,56.03628,0.16081521
826.49335,0.048617486,1173.4398,1116.39,283.64227,0.0,696.9435,57.049698,0.15715867
836.6298,0.048880223,1188.014,1129.9436,287.12225,0.0,707.3027,58.07039,0.15358528
846.82947,0.049138796,1202.6862,1143.5876,290.6295,0.0,717.7558,59.098545,0.15009306
857.0993,0.04939325,1217.4579,1157.3237,294.15833,0.0,728.3087,60.134205,0.14668027
867.4512,0.04964366,1232.329,1171.1517,297.69696,0.0,738.9687,61.177326,0.14334513
877.87146,0.049890097,1247.2975,1185.0697,301.2569,0.0,749.7285,62.227795,0.14008576
888.3497,0.050132602,1262.36,1199.0746,304.8458,0.0,760.5715,63.285393,0.13690053
898.9005,0.050371233,1277.517,1213.167,308.4494,0.0,771.5077,64.35011,0.13378775
909.49854,0.050606042,1292.7692,1227.3473,312.09338,0.0,782.517,65.42193,0.13074575
920.1723,0.05083708,1308.117,1241.6161,315.75006,0.0,793.63007,66.50085,0.12777293
930.9102,0.05106442,1323.5614,1255.9745,319.43198,0.0,804.8355,67.58689,0.1248677
941.7021,0.051288098,1339.1072,1270.4268,323.1535,0.0,816.11993,68.68025,0.122028455
952.5648,0.051508177,1354.7499,1284.9691,326.89398,0.0,827.50476,69.780685,0.11925388
963.4986,0.051724702,1370.4857,1299.5978,330.64954,0.0,838.9826,70.88796,0.1165423
974.5032,0.051937718,1386.315,1314.313,334.42056,0.0,850.554,72.00204,0.11389247
985.5794,0.0521473,1402.2388,1329.1157,338.2073,0.0,862.2204,73.12296,0.11130284
996.7045,0.052353494,1418.256,1344.0052,342.03152,0.0,873.97375,74.25065,0.108772084
1007.8808,0.05255633,1434.3639,1358.9789,345.88846,0.0,885.7983,75.384895,0.1062988
1019.1112,0.052755862,1450.5703,1374.0443,349.78293,0.0,897.6979,76.526085,0.10388178
1030.4071,0.05295214,1466.883,1389.2084,353.70993,0.0,909.70123,77.6746,0.10151975
1041.7777,0.05314523,1483.2944,1404.4645,357.65414,0.0,921.8094,78.83003,0.09921143
1053.216,0.053335145,1499.7991,1419.8071,361.61694,0.0,934.01056,79.992004,0.09695557
1064.7233,0.05352196,1516.3961,1435.2356,365.59604,0.0,946.30634,81.16049,0.09475104
1076.3009,0.05370571,1533.0864,1450.7509,369.59158,0.0,958.69684,82.33549,0.092596605
1087.9471,0.053886443,1549.8678,1466.3511,373.60287,0.0,971.18097,83.51687,0.0904912
1099.6531,0.054064203,1566.7437,1482.039,377.64175,0.0,983.75433,84.70474,0.08843359
1111.4117,0.05423903,1583.7095,1497.8107,381.7115,0.0,996.40656,85.898865,0.086422846
1123.2266,0.054410983,1600.7672,1513.6678,385.8104,0.0,1009.13226,87.09931,0.08445772
1135.0917,0.054580078,1617.9159,1529.61,389.9434,0.0,1021.9521,88.30598,0.08253733
1147.0249,0.054746382,1635.1566,1545.6377,394.0937,0.0,1034.8654,89.51891,0.0806606
1159.0261,0.054909915,1652.4891,1561.7511,398.26105,0.0,1047.8733,90.738045,0.07882659
1171.0953,0.055070728,1669.9128,1577.9496,402.44522,0.0,1060.9763,91.96332,0.07703425
1183.217,0.055228855,1687.4297,1594.2351,406.6635,0.0,1074.1573,93.19482,0.07528265
1195.4221,0.055384357,1705.0398,1610.6073,410.88492,0.0,1087.4653,94.43253,0.073570944
1207.6932,0.055537257,1722.7437,1627.0673,415.12756,0.0,1100.8706,95.67645,0.07189812
1220.0306,0.055687603,1740.5378,1643.6115,419.38788,0.0,1114.3691,96.926384,0.070263304
1232.4446,0.055835426,1758.4188,1660.2367,423.65204,0.0,1127.9823,98.18207,0.06866568
1244.9197,0.05598076,1776.3845,1676.941,427.93417,0.0,1141.6932,99.443344,0.067104384
1257.4404,0.056123663,1794.434,1693.7238,432.24817,0.0,1155.4667,100.7102,0.065578565
1270.0067,0.056264147,1812.5702,1710.5874,436.5974,0.0,1169.3062,101.98272,0.0640875
1282.6302,0.05640226,1830.7891,1727.5286,440.96655,0.0,1183.2349,103.260635,0.06263029
1295.3136,0.056538038,1849.0944,1744.5502,445.35596,0.0,1197.2561,104.544174,0.061206225
1308.057,0.05667151,1867.4855,1761.6522,449.7653,0.0,1211.3661,105.83321,0.05981458
1320.8433,0.056802712,1885.963,1778.8352,454.21216,0.0,1225.5436,107.12782,0.0584545
1333.6842,0.056931697,1904.5266,1796.0989,458.68463,0.0,1239.8009,108.42794,0.0571254
1346.5912,0.057058472,1923.1788,1813.4454,463.17386,0.0,1254.1536,109.73364,0.055826504
1359.5376,0.057183083,1941.918,1830.873,467.70404,0.0,1268.5732,111.04486,0.054557145
1372.546,0.05730557,1960.7412,1848.3798,472.25092,0.0,1283.0834,112.36139,0.05331663
1385.6266,0.05742597,1979.6499,1865.9664,476.8052,0.0,1297.7096,113.68331,0.052104335
1398.8033,0.057544276,1998.6431,1883.6326,481.3423,0.0,1312.5138,115.01046,0.0509196
1412.0111,0.057660565,2017.715,1901.3724,485.92166,0.0,1327.3488,116.34258,0.049761795
1425.2594,0.057774838,2036.868,1919.1885,490.53644,0.0,1342.2362,117.67972,0.048630323
1438.5681,0.05788713,2056.1025,1937.0806,495.16623,0.0,1357.2125,119.021866,0.04752458
1451.9431,0.05799748,2075.4175,1955.0486,499.80542,0.0,1372.2952,120.36899,0.04644402
1465.3811,0.058105927,2094.815,1973.0936,504.45834,0.0,1387.4756,121.72117,0.045387972
1478.881,0.058212493,2114.2922,1991.214,509.1239,0.0,1402.7534,123.07822,0.044355944
1492.4332,0.058317196,2133.8416,2009.4019,513.8044,0.0,1418.109,124.43966,0.043347377
1506.0363,0.058420084,2153.4666,2027.6609,518.50464,0.0,1433.5417,125.8057,0.04236175
1519.6727,0.058521166,2173.1667,2045.9905,523.24164,0.0,1449.0322,127.176254,0.041398562
1533.3658,0.05862049,2192.9504,2064.3984,528.00024,0.0,1464.617,128.55182,0.040457286
1547.1143,0.05871806,2212.8103,2082.8784,532.7747,0.0,1480.2871,129.93193,0.0395374
1560.9182,0.058813907,2232.7456,2101.4292,537.5641,0.0,1496.0408,131.3165,0.038638443
1574.7777,0.05890806,2252.7559,2120.0503,542.3681,0.0,1511.8784,132.70547,0.037759893
1588.6997,0.059000555,2272.842,2138.7432,547.1808,0.0,1527.8217,134.09895,0.0369013
1602.682,0.059091415,2293.0002,2157.5037,552.00024,0.0,1543.8698,135.49664,0.03606223
1616.7153,0.059180655,2313.2278,2176.3293,556.8336,0.0,1559.9956,136.89835,0.03524224
1630.7993,0.059268318,2333.524,2195.22,561.6809,0.0,1576.2002,138.30405,0.034440946
1644.9435,0.059354406,2353.8923,2214.1782,566.53516,0.0,1592.4917,139.71387,0.03365783
1659.1239,0.059438962,2374.3306,2233.203,571.4191,0.0,1608.8373,141.12775,0.03289253
1673.3589,0.059522,2394.8396,2252.294,576.3145,0.0,1625.2761,142.54564,0.032144625
1687.5907,0.05960354,2415.4148,2271.4475,581.275,0.0,1641.7355,143.96725,0.031413745
1701.8295,0.059683606,2436.0645,2290.6714,586.29846,0.0,1658.2266,145.39311,0.030699482
1716.1293,0.05976224,2456.7942,2309.9705,591.33594,0.0,1674.8127,146.82353,0.03000147
1730.4884,0.059839454,2477.6028,2329.3445,596.3881,0.0,1691.4924,148.25839,0.029319309
1744.9044,0.059915245,2498.4863,2348.789,601.4538,0.0,1708.2618,149.69742,0.028652666
1759.3778,0.05998966,2519.445,2368.3042,606.53253,0.0,1725.1213,151.14066,0.028001158
1773.9286,0.06006273,2540.476,2387.8884,611.6022,0.0,1742.1129,152.58794,0.027364487
1788.53,0.06013446,2561.5752,2407.5361,616.68445,0.0,1759.1862,154.03894,0.026742306
1803.183,0.060204875,2582.743,2427.2495,621.78015,0.0,1776.3401,155.49371,0.026134232
1817.886,0.06027399,2603.9778,2447.026,626.8888,0.0,1793.575,156.95215,0.025539985
1832.6384,0.06034182,2625.2788,2466.8645,632.00946,0.0,1810.8894,158.4141,0.02495924
1847.4149,0.060408402,2646.6443,2486.7644,637.16736,0.0,1828.2458,159.87955,0.024391735
1862.2379,0.06047375,2668.0808,2506.732,642.3456,0.0,1845.6914,161.34886,0.0238371
1877.1063,0.060537864,2689.5764,2526.7551,647.5338,0.0,1863.2147,162.82121,0.02329513
1892.0193,0.060600776,2711.1323,2546.8357,652.7344,0.0,1880.8099,164.29672,0.022765465
1906.9751,0.06066252,2732.747,2566.9717,657.94763,0.0,1898.476,165.77531,0.02224785
1921.9762,0.060723092,2754.4229,2587.166,663.17285,0.0,1916.2155,167.25708,0.021741994
1937.0217,0.06078253,2776.159,2607.4172,668.41034,0.0,1934.0276,168.74197,0.0212476
1952.1106,0.06084084,2797.9536,2627.7236,673.65936,0.0,1951.9108,170.22986,0.020764455
1967.2493,0.060898036,2819.8076,2648.087,678.915,0.0,1969.8927,171.72073,0.020292297
1982.36,0.06095415,2841.7166,2668.5022,684.2504,0.0,1987.8353,173.21443,0.019830907
1997.5447,0.061009172,2863.6882,2688.977,689.57056,0.0,2005.8818,174.71124,0.019379998
2012.7748,0.061063137,2885.7197,2709.5088,694.9025,0.0,2024.005,176.21109,0.01893933
2028.0535,0.061116066,2907.81,2730.0962,700.2408,0.0,2042.2267,177.7139,0.018508693
2043.3793,0.06116796,2929.9602,2750.7407,705.5885,0.0,2060.5303,179.21968,0.018087855
2058.75,0.061218843,2952.169,2771.4407,710.94653,0.0,2078.9087,180.72838,0.017676596
2074.1316,0.061268732,2974.4365,2792.1968,716.3496,0.0,2097.3164,182.23994,0.017274654
2089.5469,0.06131765,2996.7515,2812.9976,721.7631,0.0,2115.7827,183.75377,0.016881866
2104.9946,0.0613656,3019.1165,2833.8467,727.1921,0.0,2134.3066,185.2699,0.01649801
2120.4792,0.06141261,3041.5366,2854.7478,732.6359,0.0,2152.8975,186.78871,0.016122868
2136.01,0.06145868,3064.0164,2875.7063,738.0904,0.0,2171.5674,188.31041,0.015756248
2151.5845,0.061503813,3086.5522,2896.7178,743.5543,0.0,2190.3127,189.83475,0.015397999
2167.2012,0.061548058,3109.1428,2917.781,749.0272,0.0,2209.1316,191.3617,0.015047898
2182.8606,0.061591398,3131.789,2938.898,754.5102,0.0,2228.0247,192.89127,0.014705737
2198.5605,0.061633863,3154.4883,2960.0647,760.003,0.0,2246.9873,194.4233,0.014371368
2214.2993,0.061675474,3177.2393,2981.2815,765.506,0.0,2266.0203,195.95775,0.014044575
2230.073,0.06171621,3200.0369,3002.5427,771.01825,0.0,2285.1287,197.49414,0.013725246
2245.8782,0.06175612,3222.878,3023.8452,776.5405,0.0,2304.2932,199.03241,0.013413157
