con,Omega,ygross,ynet,inv,Eind,scc,Dam,Emissions
77.18905,0.0028556,105.17594,104.8756,27.686558,36.845238,33.738194,0.3003404,39.445236
79.66515,0.003272724,108.634056,108.27853,28.613377,37.48228,34.599148,0.35552928,40.023163
82.216125,0.0036534055,112.19207,111.78218,29.566057,38.1251,35.50231,0.4098831,40.60821
84.85428,0.004003978,115.848076,115.38423,30.529947,38.772114,36.45082,0.46385315,41.19876
87.57682,0.0043306896,119.59907,119.081116,31.5043,39.421562,37.447784,0.5179464,41.793034
90.37092,0.004639152,123.441414,122.86876,32.49784,40.071472,38.485313,0.5726635,42.389027
93.240715,0.0049341526,127.37454,126.74606,33.505356,40.721066,39.56982,0.62848544,42.98592
96.18046,0.005219648,131.39853,130.71266,34.532207,41.36973,40.693108,0.6858541,43.58309
99.19904,0.0054988493,135.5115,134.76634,35.567303,42.016224,41.861305,0.7451573,44.179256
102.28439,0.0057743243,139.71138,138.90463,36.62025,42.659348,43.062862,0.8067388,44.773197
105.438705,0.0060481112,143.9958,143.12491,37.686207,43.29805,44.30164,0.87090266,45.36384
108.658775,0.0063218144,148.36331,147.4254,38.766624,43.931213,45.57496,0.93792534,45.95003
111.937386,0.00659669,152.81386,151.80579,39.868393,44.558575,46.87731,1.0080657,46.531487
115.278496,0.0068737166,157.34724,156.26569,40.98719,45.1797,48.21096,1.0815604,47.107758
118.681305,0.0071536545,161.96246,160.80383,42.122528,45.793926,49.577362,1.1586236,47.67814
122.14131,0.00743709,166.65756,165.4181,43.276802,46.400208,50.974655,1.2394474,48.241577
125.66461,0.0077244784,171.4316,170.10738,44.44276,46.998245,52.407066,1.3242197,48.797752
129.24605,0.008016164,176.28825,174.8751,45.62905,47.588524,53.871872,1.4131557,49.34711
132.88884,0.008312409,181.22408,179.71765,46.82883,48.170063,55.371475,1.5064086,49.888668
136.59596,0.008613408,186.23901,184.63487,48.03889,48.742374,56.90191,1.6041526,50.4219
140.3577,0.008919308,191.33272,189.62617,49.268475,49.3053,58.46178,1.7065555,50.946644
144.17654,0.009230211,196.50723,194.69344,50.516884,49.85916,60.05263,1.8138032,51.46318
148.05646,0.009546189,201.76198,199.83594,51.779488,50.403503,61.672913,1.926058,51.97105
151.99045,0.009867285,207.0962,205.05272,53.062283,50.938034,63.319965,2.0434775,52.469936
155.98361,0.010193528,212.5095,210.34328,54.359665,51.462303,64.99935,2.1662216,52.959373
160.02682,0.010524923,218.00377,215.70929,55.682472,51.97687,66.707535,2.294473,53.439903
164.12968,0.010861468,223.57748,221.14911,57.019424,52.480946,68.44666,2.4283798,53.910713
168.29228,0.011203147,229.2276,226.65955,58.367245,52.973957,70.21586,2.5680704,54.371212
172.50827,0.011549934,234.95396,232.24025,59.731983,53.455482,72.00801,2.7137027,54.82097
176.77719,0.011901796,240.7586,237.89314,61.115967,53.926105,73.82744,2.8654597,55.260548
181.10297,0.012258689,246.64514,243.62158,62.518627,54.386417,75.67634,3.023546,55.690514
185.48047,0.012620568,252.61143,249.42334,63.942867,54.835934,77.55115,3.1880999,56.110382
189.91342,0.012987384,258.6579,255.29861,65.38518,55.274548,79.45118,3.3592892,56.520016
194.3959,0.013359084,264.78485,261.24756,66.85166,55.702255,81.37251,3.537283,56.919407
198.93747,0.013735611,270.99072,267.26852,68.33106,56.118748,83.32603,3.7222233,57.30822
203.5429,0.014116909,277.27972,273.3654,69.82252,56.52472,85.31442,3.9143324,57.687145
208.19461,0.01450291,283.6497,279.53598,71.341354,56.91967,87.31982,4.1137457,58.05567
212.90099,0.014893552,290.10147,285.78082,72.879845,57.303795,89.36089,4.320641,58.413967
217.6677,0.015288776,296.63568,292.10046,74.432785,57.677067,91.435036,4.5351963,58.761993
222.49336,0.015688507,303.2527,298.4951,76.00175,58.039494,93.538574,4.7575817,59.099747
227.38159,0.01609269,309.9517,304.9637,77.58214,58.3909,95.67593,4.9879565,59.42705
232.33347,0.016501244,316.73285,311.50638,79.17289,58.73136,97.84834,5.226486,59.74395
237.32849,0.016914107,323.597,318.1236,80.795135,59.060925,100.04479,5.4733543,60.050488
242.38708,0.017331202,330.5439,324.8152,82.4281,59.37961,102.275215,5.728723,60.34667
247.5024,0.01775246,337.57303,331.5803,84.07787,59.68711,104.53205,5.9927516,60.632187
252.66547,0.018177807,344.68448,338.41885,85.75339,59.983643,106.81558,6.265608,60.907223
257.87848,0.018607175,351.8794,345.33188,87.453415,60.2693,109.12856,6.547481,61.171883
263.1514,0.019040484,359.15756,352.31906,89.16765,60.54405,111.47158,6.8385334,61.426113
268.47125,0.019477664,366.5215,359.38257,90.91131,60.80843,113.842445,7.1389832,61.670437
273.8438,0.019918643,373.9726,366.52362,92.679794,61.06242,116.2381,7.449027,61.90482
279.2787,0.020363336,381.50974,373.74094,94.46226,61.30607,118.66554,7.768811,62.129326
284.77362,0.020811679,389.13303,381.03455,96.26092,61.539295,121.12719,8.098512,62.343834
290.32104,0.0212636,396.83878,388.40054,98.07949,61.76163,123.61581,8.438221,62.54787
295.92996,0.021719016,404.63043,395.84225,99.91231,61.97344,126.13609,8.788175,62.741806
301.60788,0.022177855,412.5122,403.36356,101.75569,62.1756,128.69296,9.148635,62.9265
307.33368,0.022640046,420.4833,410.96356,103.62987,62.367756,131.27464,9.519761,63.10158
313.09778,0.023105515,428.53998,418.6384,105.540596,62.54962,133.87683,9.901637,63.26676
318.93246,0.023574194,436.68503,426.39056,107.45805,62.721504,136.51524,10.2944975,63.42234
324.82657,0.024046002,444.92035,434.2218,109.39519,62.883713,139.18282,10.698556,63.568607
330.77798,0.024520874,453.2462,442.1322,111.354225,63.03641,141.88533,11.113993,63.70574
336.78348,0.02499874,461.66293,450.12195,113.33848,63.179462,144.61194,11.540992,63.83357
342.85553,0.025479527,470.1683,458.18866,115.33312,63.312687,147.37595,11.979666,63.95192
348.98425,0.025963167,478.76242,466.33224,117.348,63.436283,150.17165,12.430188,64.06098
355.17746,0.026449587,487.44705,474.5543,119.37688,63.550377,153.01172,12.892774,64.16087
361.4279,0.026938716,496.22354,482.8559,121.42802,63.655117,155.88745,13.367624,64.251724
367.73584,0.027430497,505.09116,491.23624,123.50039,63.75066,158.79753,13.854902,64.33371
374.10242,0.02792485,514.04834,499.6936,125.59119,63.836742,161.7385,14.354723,64.40653
380.53012,0.028421715,523.0961,508.22888,127.69876,63.913567,164.71516,14.867289,64.4704
387.01764,0.028921017,532.2353,516.8425,129.82486,63.981274,167.72499,15.392786,64.52545
393.55,0.02942269,541.465,525.5336,131.98366,64.039825,170.7578,15.931356,64.57163
400.1436,0.02992667,550.77985,534.2969,134.15326,64.088684,173.82281,16.483007,64.60839
406.8032,0.030432906,560.1813,543.13336,136.33018,64.12809,176.92862,17.047945,64.63598
413.5188,0.03094131,569.6737,552.04724,138.52844,64.158646,180.0512,17.62645,64.65499
420.2874,0.031451818,579.2583,561.0396,140.7522,64.18057,183.20845,18.218727,64.66563
427.11047,0.031964373,588.93353,570.1086,142.99812,64.193634,186.39845,18.82489,64.667656
433.97922,0.032478902,598.7014,579.2562,145.27704,64.19837,189.61273,19.445166,64.66162
440.91083,0.03299535,608.56366,588.48395,147.57309,64.19494,192.86192,20.079771,64.64765
447.90524,0.033513647,618.51776,597.789,149.88376,64.18312,196.14748,20.728786,64.62555
454.96332,0.034033734,628.5627,607.1703,152.20705,64.1629,199.4688,21.392336,64.59527
462.06122,0.03455555,638.70166,616.6309,154.56973,64.13472,202.80162,22.070688,64.55724
469.21912,0.03507903,648.932,626.1681,156.949,64.09826,206.17151,22.763905,64.51118
476.44272,0.035604127,659.25745,635.7852,159.34248,64.05421,209.58649,23.472288,64.45774
483.71967,0.03613078,669.6798,645.4837,161.76405,64.00258,213.04485,24.196053,64.39694
491.05984,0.036658924,680.1936,655.25836,164.19855,63.943172,216.53918,24.935165,64.32856
498.46432,0.037188504,690.80225,665.11237,166.64801,63.87618,220.06969,25.689901,64.25281
505.9288,0.037719462,701.5028,675.04254,169.11371,63.80153,223.63524,26.460312,64.1696
513.45154,0.038251743,712.2964,685.0498,171.59827,63.719402,227.23734,27.246576,64.0791
521.0402,0.038769886,723.1836,695.1459,174.10559,63.62998,230.87909,28.037745,63.9815
528.6978,0.039277323,734.1672,705.33105,176.63332,63.53359,234.55956,28.83612,63.877117
536.3668,0.03977666,745.24835,715.6049,179.23807,63.430298,238.24203,29.643492,63.766014
544.1178,0.040269867,756.426,725.96484,181.84705,63.320328,241.97098,30.461174,63.64841
551.94946,0.040758405,767.701,736.4107,184.46127,63.20362,245.74786,31.290268,63.524246
559.8484,0.041243397,779.07227,746.94073,187.09233,63.080284,249.56532,32.131588,63.39361
567.80347,0.04172566,790.5391,757.55334,189.74986,62.95036,253.42393,32.985767,63.256565
575.83075,0.04220583,802.1026,768.2492,192.4185,62.81403,257.33286,33.853405,63.113274
583.9233,0.042684346,813.7593,779.0245,195.10123,62.671,261.28146,34.734783,62.96344
592.0478,0.043161552,825.5081,789.8778,197.83002,62.521553,265.26254,35.63021,62.807343
600.2316,0.04363768,837.35474,800.81445,200.58281,62.36598,269.282,36.54022,62.645267
608.4837,0.044112913,849.3024,811.8372,203.35352,62.204605,273.3441,37.465202,62.47755
616.8073,0.044587366,861.35034,822.94495,206.1376,62.03769,277.45773,38.405342,62.30443
625.20544,0.045061138,873.4904,834.12994,208.92451,61.864532,281.62976,39.360474,62.1252
633.6697,0.04553427,885.72125,845.39056,211.7209,61.685368,285.83572,40.330673,61.940105
642.1801,0.0460068,898.04694,856.73065,214.55055,61.50026,290.06668,41.316265,61.749207
650.73,0.046478733,910.4677,868.1503,217.42035,61.309673,294.31866,42.317387,61.552967
659.31915,0.046950083,922.98193,879.6478,220.32867,61.11338,298.5988,43.33408,61.35114
667.9617,0.047420833,935.59766,891.23083,223.26918,60.912125,302.92065,44.366817,61.144474
676.6776,0.04789097,948.3194,902.9035,226.22589,60.7063,307.2818,45.415936,60.933376
685.4576,0.048360474,961.13696,914.65594,229.19835,60.49521,311.686,46.481037,60.71711
694.3052,0.04882934,974.0499,926.48773,232.1825,60.279053,316.13712,47.562214,60.495907
703.21326,0.049297523,987.05597,938.39655,235.18326,60.05769,320.6286,48.659416,60.26962
712.17664,0.049765006,1000.1511,950.37866,238.20193,59.831223,325.15634,49.772526,60.038334
721.1881,0.05023176,1013.3405,962.4386,241.2505,59.59974,329.72305,50.90188,59.80214
730.30145,0.050697748,1026.6381,974.5899,244.28845,59.364483,334.36868,52.04824,59.562283
739.4271,0.051162962,1040.035,986.82385,247.39671,59.124813,339.03558,53.211273,59.318115
748.59674,0.051627357,1053.5255,999.1349,250.53818,58.880608,343.73157,54.39074,59.06952
757.8324,0.052090894,1067.1082,1011.52155,253.6892,58.63191,348.46976,55.58662,58.81652
767.1188,0.052553564,1080.7838,1023.98474,256.86597,58.378757,353.23996,56.79904,58.559174
776.47925,0.05301534,1094.5577,1036.5294,260.05014,58.121567,358.05923,58.028355,58.297874
785.9046,0.05347618,1108.429,1049.1544,263.24985,57.86048,362.92328,59.274548,58.03278
795.38214,0.053936068,1122.3954,1061.8578,266.47565,57.59548,367.8318,60.537594,57.763863
804.922,0.054394957,1136.4534,1074.6361,269.7141,57.326412,372.78613,61.817333,57.49097
814.52277,0.054852836,1150.6038,1087.4899,272.9672,57.0535,377.78226,63.113884,57.214314
824.188,0.055309683,1164.851,1100.4235,276.2355,56.77712,382.8314,64.42753,56.934277
833.90814,0.05576546,1179.1945,1113.436,279.52795,56.49719,387.91962,65.75832,56.650772
843.6769,0.056220155,1193.6345,1126.5283,282.85144,56.213875,393.05087,67.10632,56.363968
853.519,0.056673728,1208.1707,1139.6991,286.18008,55.9273,398.23236,68.47153,56.07398
863.40753,0.057126153,1222.8008,1152.9469,289.53928,55.637524,403.46884,69.8539,55.780872
873.3543,0.05757741,1237.5253,1166.2716,292.9173,55.34453,408.7599,71.253494,55.48461
883.36694,0.0580275,1252.34,1179.6699,296.3029,55.048267,414.09567,72.67016,55.18517
893.39923,0.05847637,1267.2446,1193.1409,299.74158,54.74891,419.45456,74.10387,54.882694
903.48157,0.058923997,1282.2417,1206.687,303.20535,54.446682,424.8473,75.5548,54.57743
913.6321,0.05937037,1297.3359,1220.3125,306.68045,54.14169,430.28958,77.023315,54.269466
923.8383,0.059815474,1312.5259,1234.0166,310.17828,53.83428,435.77838,78.50936,53.95915
934.094,0.060259275,1327.8113,1247.7983,313.70435,53.524307,441.30853,80.01294,53.64633
944.42035,0.060701743,1343.1895,1261.6555,317.23514,53.211792,446.88757,81.53394,53.331047
954.8057,0.06114289,1358.6582,1275.5859,320.78018,52.89672,452.51227,83.072296,53.01326
965.2372,0.06158268,1374.2152,1289.5874,324.35016,52.57932,458.1817,84.62785,52.69321
975.7291,0.06202109,1389.8636,1303.6628,327.93372,52.259514,463.89932,86.20086,52.37082
986.26074,0.06245811,1405.6022,1317.8109,331.5502,51.93756,469.6518,87.79126,52.046333
996.828,0.06289372,1421.4348,1332.0354,335.20746,51.61359,475.44168,89.399315,51.719887
1007.47015,0.063327886,1437.3645,1346.3392,338.869,51.28782,481.29028,91.02525,51.3917
1018.1631,0.063760616,1453.3838,1360.7151,342.55194,50.96015,487.18353,92.66864,51.061672
1028.9116,0.064191885,1469.4927,1375.1632,346.25168,50.630596,493.12247,94.329506,50.729805
1039.7194,0.06462168,1485.6917,1389.6837,349.96436,50.299343,499.1026,96.00789,50.396305
1050.568,0.065049976,1501.9812,1404.2772,353.70926,49.966442,505.1108,97.703835,50.06119
1061.4777,0.06547675,1518.361,1418.9437,357.466,49.631958,511.16547,99.41735,49.724552
1072.4281,0.06590202,1534.8242,1433.6763,361.24814,49.295845,517.25696,101.14801,49.386337
1083.4648,0.06632574,1551.384,1448.4874,365.02255,48.95844,523.4332,102.8967,49.04687
1094.5587,0.066747904,1568.023,1463.3606,368.80197,48.61956,529.6531,104.66224,48.705986
1105.6675,0.06716851,1584.7437,1478.2988,372.63123,48.279114,535.8914,106.44487,48.36357
1116.824,0.067587525,1601.555,1493.31,376.48605,47.937557,542.1722,108.24515,48.020096
1128.036,0.06800496,1618.4625,1508.3989,380.3629,47.59523,548.49554,110.06347,47.675888
1139.2981,0.06842079,1635.4532,1523.5543,384.25613,47.251827,554.8628,111.899,47.33065
1150.619,0.068835,1652.5261,1538.7744,388.15546,46.90722,561.2763,113.751625,46.984253
1161.9703,0.06924759,1669.6825,1554.0609,392.09058,46.56165,567.71344,115.62148,46.636936
1173.3461,0.06965854,1686.9244,1569.4156,396.0696,46.21542,574.1792,117.50868,46.28899
1184.8082,0.07006782,1704.2576,1584.844,400.03583,45.868504,580.72217,119.41363,45.9404
1196.3075,0.07047547,1721.679,1600.3429,404.0353,45.521004,587.31006,121.33612,45.59127
1207.8723,0.07088142,1739.1841,1615.9083,408.036,45.172935,593.94977,123.27584,45.241604
1219.4713,0.07128571,1756.7723,1631.5396,412.0683,44.824226,600.6245,125.23276,44.89133
1231.1243,0.071688294,1774.4445,1647.2375,416.1134,44.47513,607.34515,127.2069,44.540703
1242.859,0.072089195,1792.1991,1663.001,420.1419,44.12559,614.1424,129.19818,44.18968
1254.6146,0.07248838,1810.0356,1678.829,424.21436,43.77578,620.97284,131.20656,43.838413
1266.4204,0.07288587,1827.9525,1694.7207,428.3003,43.425564,627.85925,133.23192,43.48677
1278.2965,0.07328164,1845.9498,1710.6757,432.37918,43.075195,634.80206,135.27423,43.135006
1290.2227,0.07367566,1864.0321,1726.6982,436.47556,42.724674,641.79083,137.33379,42.78313
1302.2086,0.07406795,1882.1875,1742.7777,440.56906,42.373978,648.83124,139.40976,42.431107
1314.162,0.07445852,1900.4088,1758.9073,444.7453,42.02294,655.88666,141.50163,42.07877
1326.1753,0.07484733,1918.7177,1775.1068,448.93158,41.672134,663.0026,143.61092,41.726692
1338.261,0.075234376,1937.1138,1791.3762,453.11523,41.321598,670.1762,145.73755,41.374916
1350.3838,0.07561966,1955.5851,1807.7043,457.32062,40.971165,677.3817,147.88069,41.02327
1362.5166,0.07600318,1974.1409,1824.0999,461.58328,40.621063,684.6059,150.04099,40.67198
1374.7142,0.07638492,1992.779,1840.5608,465.84644,40.27134,691.8862,152.21826,40.321106
1386.9786,0.076764874,2011.4976,1857.0851,470.10654,39.921997,699.2228,154.41235,39.970623
1399.3053,0.077143066,2030.2926,1873.6698,474.3645,39.573036,706.61224,156.62302,39.620564
1411.6901,0.07751948,2049.161,1890.311,478.62103,39.224525,714.0516,158.84988,39.27097
1424.1143,0.07789409,2068.103,1907.0099,482.89566,38.876396,721.52094,161.09299,38.921783
1436.5583,0.07826692,2087.1167,1923.7646,487.20615,38.52882,729.03314,163.35219,38.573174
1448.9921,0.07863795,2106.196,1940.5692,491.57715,38.181618,736.5852,165.62694,38.224968
1461.5059,0.07900716,2125.3618,1957.4429,495.9371,37.83528,744.20667,167.9188,37.87764
1474.0889,0.07937458,2144.6052,1974.378,500.28915,37.489796,751.8897,170.22713,37.53119
1486.6478,0.07974021,2163.9236,1991.3717,504.72388,37.145008,759.56024,172.55173,37.18547
1499.1893,0.080104016,2183.3164,2008.4238,509.23453,36.801125,767.22314,174.89241,36.840664
1511.7893,0.080465995,2202.7844,2025.5352,513.7458,36.458054,774.9373,177.24924,36.496693
1524.4836,0.08082619,2222.3308,2042.7084,518.2246,36.11599,782.7401,179.62254,36.15375
1537.2667,0.08118455,2241.9624,2059.9495,522.68286,35.77507,790.6413,182.01271,35.81197
1550.0721,0.08154111,2261.6697,2077.2507,527.17865,35.435192,798.58075,184.41908,35.471252
1562.9227,0.08189585,2281.4487,2094.6074,531.6848,35.09635,806.57526,186.84119,35.13159
1575.8204,0.08224878,2301.2898,2112.0117,536.1912,34.758442,814.61316,189.27829,34.792885
1588.7485,0.082599886,2321.195,2129.4648,540.7163,34.4215,822.6849,191.73045,34.455162
1601.667,0.08294918,2341.1633,2146.9656,545.29877,34.085674,830.77954,194.19756,34.11857
1614.6438,0.083296664,2361.2002,2164.52,549.8763,33.750977,838.92804,196.6801,33.783123
1627.6752,0.08364233,2381.3018,2182.124,554.449,33.417522,847.1272,199.1776,33.448936
1640.7437,0.08398617,2401.4658,2199.776,559.03235,33.085205,855.3644,201.68993,33.115906
1653.8674,0.084328204,2421.6973,2217.4797,563.61255,32.754196,863.65375,204.21738,32.7842
1667.0488,0.08466841,2441.9949,2235.235,568.1861,32.424534,871.99677,206.75983,32.45385
1680.2834,0.08500682,2462.3547,2253.0378,572.7543,32.0962,880.39026,209.31696,32.12485
1693.5488,0.085343406,2482.7766,2270.888,577.339,31.769175,888.8255,211.8886,31.797173
1706.7819,0.08567818,2503.2554,2288.781,581.9993,31.443504,897.24744,214.47435,31.470867
1720.0348,0.08601115,2523.7805,2306.707,586.67224,31.119095,905.6911,217.07326,31.14584
1733.3075,0.08634228,2544.355,2324.6694,591.362,30.796034,914.1675,219.68542,30.822168
1746.6495,0.08667163,2565.0054,2342.6921,596.0427,30.47462,922.7155,222.31319,30.50016
1760.0615,0.086999156,2585.736,2360.7793,600.7176,30.15501,931.3319,224.95685,30.17997
1773.5099,0.08732489,2606.5225,2378.9084,605.39844,29.836926,939.98834,227.61429,29.861315
1786.8599,0.08764882,2627.3652,2397.0798,610.2199,29.520422,948.60785,230.28546,29.544262
1800.2877,0.08797094,2648.2803,2415.3086,615.02094,29.205696,957.3021,232.97173,29.22899
1813.7645,0.08829126,2669.263,2433.5903,619.82587,28.892683,966.05,235.67259,28.91545
1827.2703,0.08860977,2690.3103,2451.9224,624.65204,28.58142,974.8376,238.38777,28.603668
1840.827,0.0889265,2711.4253,2470.3074,629.48047,28.271984,983.68463,241.11755,28.293728
1854.4159,0.08924146,2732.6013,2488.74,634.32404,27.96427,992.5741,243.86133,27.985518
1868.0225,0.08955462,2753.8293,2507.2112,639.18884,27.658205,1001.4849,246.61815,27.678968
1881.6881,0.089866,2775.1172,2525.7285,644.0404,27.353962,1010.4588,249.38867,27.374254
1895.4323,0.090175584,2796.4578,2544.2854,648.8533,27.051497,1019.54047,252.17221,27.071327
1909.2202,0.09048341,2817.8503,2562.8818,653.6614,26.750824,1028.6683,254.96873,26.770203
1923.0494,0.09078947,2839.2925,2581.515,658.46533,26.451899,1037.8397,257.77783,26.470839
1936.8922,0.09109375,2860.7812,2600.182,663.2897,26.15483,1047.0387,260.5993,26.17334
1950.7238,0.09139628,2882.319,2618.886,668.16223,25.859556,1056.2509,263.43326,25.877645
1964.6018,0.091697045,2903.9082,2637.6284,673.02655,25.566132,1065.5126,266.2798,25.583809
1978.5228,0.09199605,2925.5469,2656.4082,677.8854,25.274614,1074.8204,269.13876,25.29189
1992.4674,0.09229331,2947.2307,2675.221,682.75366,24.984934,1084.1722,272.0097,25.001816
2006.4049,0.09258884,2968.9592,2694.0667,687.66187,24.697159,1093.545,274.8925,24.713657
2020.3765,0.09288262,2990.7314,2712.9446,692.5681,24.411263,1102.9564,277.78696,24.427385
2034.3558,0.09317466,3012.5442,2731.8513,697.49567,24.127283,1112.3917,280.69278,24.143042
2048.2778,0.09346496,3034.3987,2750.7888,702.51105,23.845257,1121.815,283.61,23.860655
