con,Omega,Theta,ygross,ynet,inv,Eind,scc,carbontax,Abatement,Dam,Emissions
77.31674,0.0017051001,0.0006082576,105.17594,104.996605,27.616,31.035406,29.410368,28.629507,0.06397407,0.17933552,33.635406
79.83932,0.0018181846,0.00064788974,108.69794,108.500305,28.590698,31.397966,30.15291,29.98562,0.07042428,0.19763291,33.93885
82.44743,0.0019360201,0.0006862714,112.33424,112.11676,29.59238,31.769384,30.948385,31.298807,0.077091776,0.21748136,34.252495
85.150604,0.0020586571,0.00072319934,116.07911,115.84014,30.605762,32.147305,31.79737,32.566628,0.08394834,0.2389671,34.57395
87.946625,0.0021861454,0.00075879623,119.93126,119.669075,31.63165,32.529808,32.695847,33.795246,0.09100339,0.26218718,34.901287
90.81709,0.002318533,0.00079304323,123.88858,123.60133,32.686214,32.9153,33.63492,34.986416,0.098249,0.28723973,35.232853
93.77667,0.002455868,0.0008266039,127.94483,127.630615,33.748444,33.29894,34.623726,36.159836,0.105759695,0.31421563,35.563797
96.82175,0.0025981967,0.00085905526,132.10312,131.75989,34.824955,33.682304,35.657578,37.305386,0.113483876,0.3432299,35.895664
99.94385,0.0027455636,0.0008916069,136.36276,135.98837,35.923275,34.060135,36.732063,38.45646,0.12158198,0.37439263,36.223167
103.144066,0.0028980118,0.0009247579,140.71803,140.31023,37.036407,34.428585,37.84849,39.62674,0.13013011,0.40780255,36.54244
106.418015,0.0030555811,0.00095841644,145.16934,144.72577,38.16904,34.787655,39.003742,40.81395,0.13913268,0.4435767,36.853443
109.76443,0.0032183097,0.0009926552,149.71472,149.2329,39.32032,35.135857,40.197224,42.020405,0.14861509,0.48182836,37.154675
113.18722,0.0033862304,0.001027417,154.35384,153.83115,40.485893,35.472984,41.43398,43.24477,0.15858576,0.5226777,37.4459
116.682144,0.0035593766,0.0010630748,159.08678,158.52054,41.669872,35.797264,42.711998,44.496933,0.16912115,0.5662497,37.72532
120.24242,0.0037377744,0.0010991034,163.91151,163.29886,42.87696,36.10968,44.023094,45.763557,0.1801557,0.6126643,37.9939
123.87112,0.0039214487,0.0011365183,168.82698,168.16493,44.102688,36.405853,45.36458,47.070976,0.19187497,0.6620463,38.247227
127.57472,0.0041104187,0.001176048,173.83379,173.11928,45.340954,36.68316,46.7486,48.437443,0.20443688,0.7145297,38.482666
131.34387,0.004304701,0.0012167187,178.93105,178.16081,46.60016,36.94434,48.168224,49.83824,0.21770875,0.77024466,38.702927
135.18011,0.0045043044,0.0012587215,184.11662,183.28728,47.87646,37.188206,49.623814,51.278084,0.23175153,0.82931733,38.90681
139.0819,0.0047092373,0.001301538,189.39384,188.50194,49.1747,37.41681,51.11219,52.744244,0.24650328,0.89190054,39.096333
143.04898,0.0049195006,0.001344861,194.76068,193.80254,50.492943,37.630726,52.636307,54.229244,0.26192605,0.95812523,39.272064
147.07793,0.0051350924,0.0013889561,200.2178,199.18967,51.83507,37.828915,54.19395,55.740013,0.27809376,1.028137,39.432934
151.16971,0.0053560045,0.0014347809,205.76543,204.66336,53.19999,38.00768,55.783405,57.30042,0.29522833,1.1020806,39.57523
155.31862,0.0055822246,0.0014828033,211.40437,210.22426,54.59394,38.165375,57.405025,58.9218,0.31347108,1.1801068,39.69728
159.54045,0.005813736,0.0015325225,217.13525,215.87288,56.001595,38.303562,59.06753,60.59191,0.33276466,1.262367,39.800632
163.82315,0.0060505173,0.0015848101,222.95695,221.60796,57.433594,38.419,60.765484,62.331676,0.35334444,1.349005,39.882034
168.1765,0.00629254,0.0016384745,228.87108,227.43091,58.881756,38.515858,62.50214,64.11229,0.37499946,1.4401805,39.94562
172.59538,0.00653977,0.0016931404,234.8783,233.34224,60.35179,38.595673,64.27533,65.92475,0.39768192,1.53605,39.99293
177.07982,0.006792168,0.0017490258,240.97874,239.34196,61.843513,38.65733,66.08679,67.774796,0.421478,1.6367681,40.022816
181.63026,0.007049691,0.0018057699,247.16927,245.42679,63.353333,38.701645,67.932556,69.653984,0.44633082,1.742467,40.036083
186.25009,0.007312293,0.0018629594,253.44981,251.5965,64.8777,38.729908,69.81827,71.55302,0.4721667,1.8532991,40.034
190.9391,0.0075799166,0.0019204408,259.82245,257.853,66.41869,38.742992,71.741875,73.468704,0.49897367,1.9694325,40.017437
195.69252,0.007852507,0.0019794968,266.28918,264.19818,67.982666,38.736492,73.703186,75.43178,0.52711856,2.0910375,39.98196
200.5096,0.008130004,0.0020401129,272.84857,270.6303,69.5686,38.71021,75.703926,77.44211,0.5566419,2.2182598,39.927357
205.39981,0.008412338,0.0021022824,279.4991,277.14786,71.1654,38.664005,77.74505,79.499664,0.58758605,2.3512409,39.853477
210.35179,0.008699439,0.0021667543,286.2409,283.75076,72.78417,38.595165,79.82444,81.62217,0.62021375,2.4901352,39.75759
215.35588,0.008991229,0.0022330745,293.07535,290.44022,74.435776,38.5055,81.93881,83.79922,0.6544591,2.6351078,39.641502
220.4227,0.009287629,0.0023000906,300.00436,297.21802,76.11169,38.3994,84.09047,86.00439,0.6900372,2.7863293,39.509567
225.55585,0.009588548,0.002367777,307.0295,304.08554,77.809685,38.27701,86.282936,88.23776,0.7269774,2.9439673,39.36194
230.74408,0.009893896,0.0024357727,314.15067,311.04248,79.540825,38.139576,88.51493,90.491554,0.7651996,3.108174,39.199833
236.0042,0.010203582,0.0025057113,321.37085,318.0917,81.29047,37.98177,90.78828,92.80362,0.80526257,3.2791338,39.01792
241.32555,0.010517502,0.0025788485,328.69156,325.23456,83.070244,37.79951,93.09545,95.20267,0.84764576,3.457014,38.8121
246.71523,0.010835554,0.0026535452,336.10886,332.46695,84.86946,37.59799,95.4453,97.65168,0.89188,3.6419256,38.58755
252.17755,0.01115763,0.0027291595,343.62454,339.79053,86.68561,37.379715,97.83942,100.13646,0.9378062,3.8340354,38.346783
257.71317,0.011483615,0.0028064132,351.2406,347.20712,88.51954,37.142292,100.27829,102.67399,0.98572636,4.033512,38.087368
263.30447,0.011813394,0.0028838809,358.95602,354.71555,90.388115,36.89069,102.7561,105.23249,1.0351864,4.2404895,37.81428
268.948,0.0121468445,0.0029623664,366.76932,362.31424,92.29291,36.621952,105.267265,107.83071,1.086505,4.45509,37.524544
274.66727,0.012483843,0.003040899,374.68915,370.0116,94.21914,36.340286,107.8232,110.44753,1.1393918,4.677561,37.22235
280.44012,0.012824265,0.0031177595,382.70883,377.8009,96.1829,36.05095,110.41175,113.0451,1.1931942,4.90796,36.912956
286.2904,0.013167976,0.0031958418,390.83716,385.6906,98.1676,35.744774,113.05855,115.68901,1.2490537,5.1465344,36.58719
292.22116,0.013514852,0.0032752838,399.06906,393.6757,100.16512,35.42108,115.758606,118.38255,1.3070644,5.3933597,36.244335
298.20694,0.013864756,0.0033564847,407.40396,401.7554,102.20002,35.07843,118.49563,121.13522,1.3674452,5.648556,35.882965
304.26782,0.014217555,0.0034383377,415.84314,409.93088,104.253555,34.72083,121.279274,123.92282,1.4298091,5.912273,35.50707
310.40872,0.014573106,0.0035209733,424.3895,418.20483,106.32361,34.347973,124.11513,126.74912,1.494264,6.1846724,35.116337
316.61523,0.014931266,0.0036059134,433.03976,426.5739,108.420494,33.95475,126.99026,129.64807,1.5615039,6.465832,34.705647
322.89752,0.015291892,0.0036927212,441.79086,435.035,110.53103,33.542347,129.91078,132.6108,1.6314104,6.755818,34.27617
329.23907,0.01565484,0.0037791745,450.64838,443.59357,112.67807,33.118877,132.87251,135.58847,1.703079,7.054828,33.836014
335.65805,0.01601995,0.0038673477,459.61252,452.24954,114.842445,32.67746,135.88383,138.62772,1.7774813,7.3629694,33.37829
342.1489,0.016387071,0.003956586,468.68045,461.00018,117.027336,32.22019,138.94261,141.71461,1.8543746,7.6802998,32.905083
348.7043,0.016756058,0.0040473905,477.85303,469.8461,119.240166,31.74567,142.04874,144.86067,1.934058,8.006933,32.41499
355.33588,0.017126743,0.00413914,487.13168,478.7887,121.47104,31.256042,145.20784,148.05318,2.0163062,8.342979,31.910149
362.02704,0.017498964,0.0042310664,496.5179,487.82935,123.738235,30.75413,148.40695,151.27573,2.1008,8.688549,31.393354
368.77393,0.017872566,0.004324332,506.01233,496.9686,126.045586,30.236353,151.64592,154.55429,2.1881652,9.043739,30.861048
375.5988,0.018247385,0.0044209133,515.6162,506.20758,128.37094,29.69638,154.93573,157.93321,2.2794948,9.408648,30.306871
382.4999,0.018623253,0.004517736,525.32806,515.54474,130.71574,29.144266,158.27441,161.34573,2.3732934,9.783318,29.740875
389.4797,0.019000001,0.004614694,535.14825,524.98047,133.07814,28.580667,161.66322,164.7898,2.4695454,10.167818,29.163713
396.54172,0.019377464,0.004712769,545.077,534.51483,135.45406,28.002459,165.10588,168.28792,2.5688221,10.562211,28.572248
403.68567,0.019755466,0.0048132422,555.1144,544.1478,137.84308,27.405666,168.60518,171.86891,2.6718998,10.966543,27.9625
410.89722,0.02013384,0.0049167136,565.25653,553.87573,140.25523,26.78839,172.15906,175.54669,2.7792044,11.380785,27.332561
418.1635,0.020512413,0.0050212867,575.50653,563.70154,142.70753,26.15709,175.75342,179.28027,2.8897834,11.805028,26.688889
425.4849,0.020891007,0.0051261964,585.8664,573.6271,145.2017,25.514505,179.38368,183.05363,3.0032663,12.239339,26.034214
432.86804,0.021269439,0.005231215,596.33234,583.6486,147.72743,24.861341,183.04764,186.8625,3.1195426,12.683653,25.369232
440.3135,0.021647537,0.0053378297,606.9095,593.7714,150.28844,24.193264,186.76039,190.74039,3.2395797,13.138095,24.689606
447.83945,0.022025118,0.0054470454,617.60266,603.9999,152.87042,23.507458,190.52551,194.71005,3.3641095,13.602771,23.992514
455.42566,0.022402013,0.005556249,628.40967,614.33203,155.49301,22.812227,194.34038,198.71512,3.4916005,14.077641,23.286253
463.08365,0.02277803,0.0056643127,639.335,624.7723,158.14969,22.111588,198.21661,202.73108,3.6213934,14.562794,22.574837
470.8326,0.023152992,0.005770493,650.3808,635.3226,160.82384,21.407972,202.15315,206.7424,3.753018,15.058263,21.860691
478.65378,0.02352672,0.0058816597,661.5462,645.9822,163.52895,20.679884,206.14915,210.90137,3.8909895,15.5640135,21.122307
486.55194,0.023899041,0.0060041985,672.8263,656.7464,166.25122,19.907482,210.18863,215.34995,4.0397825,16.079903,20.339844
494.51157,0.024269773,0.006128171,684.21765,667.6119,169.00903,19.122168,214.27698,219.8698,4.1930027,16.605806,19.544699
502.55753,0.024638724,0.006251163,695.72327,678.58154,171.78212,18.331657,218.42152,224.40884,4.3490796,17.141735,18.744581
510.68402,0.025005704,0.006375666,707.34283,689.6552,174.57417,17.52851,222.61795,229.02248,4.5097814,17.687605,17.932043
518.8803,0.025370523,0.0064993994,719.07635,700.83295,177.39769,16.719837,226.86252,233.66168,4.673564,18.243343,17.114197
527.1482,0.025732988,0.0066220877,730.927,712.1181,180.25424,15.906829,231.16408,238.32071,4.840263,18.808937,16.292221
535.4967,0.026092917,0.006745593,742.8946,723.51025,183.13307,15.083807,235.5241,243.04207,5.0112643,19.384287,15.460438
543.9231,0.026450122,0.0068685175,754.9757,735.0065,186.03496,14.255215,239.93777,247.79547,5.1855636,19.969196,14.623281
552.4414,0.02680442,0.0069905426,767.173,746.6093,188.94875,13.422248,244.4201,252.57455,5.362955,20.563625,13.781944
561.03644,0.02715373,0.007108942,779.482,758.31616,191.88893,12.593258,248.96065,257.31934,5.541292,21.165844,12.9447775
569.7177,0.027497893,0.007223089,791.90405,770.1283,194.84793,11.770258,253.5578,262.01624,5.7199936,21.775692,12.113784
578.4864,0.027836744,0.0073326463,804.4394,782.0464,197.82552,10.954354,258.21237,266.6581,5.8986692,22.392973,11.290069
587.34393,0.028170135,0.0074374196,817.0894,794.0719,200.8221,10.146384,262.925,271.24005,6.0770364,23.01752,10.474466
596.28577,0.028497918,0.007539334,829.8553,806.2061,203.8421,9.3406,267.68262,275.80576,6.2565556,23.649147,9.6612215
605.2801,0.028819948,0.0076345755,842.7338,818.44635,206.91768,8.548668,272.48013,280.26883,6.433915,24.287546,8.8619995
614.33813,0.029136103,0.007724439,855.7285,830.7959,210.04034,7.766911,277.3176,284.65778,6.6100225,24.932592,8.073118
623.4897,0.029446257,0.0078084627,868.8416,843.25745,213.1832,6.996921,282.21603,288.96127,6.784317,25.584133,7.2961664
632.7351,0.02975029,0.007886462,882.073,855.83105,216.34648,6.2394066,287.1759,293.17447,6.956435,26.241928,6.5318465
642.07605,0.030048093,0.0079583125,895.4238,868.51807,219.53004,5.4951005,292.19812,297.29248,7.1260624,26.905777,5.7808914
651.5108,0.030339569,0.008023317,908.89453,881.31903,222.7372,4.7662387,297.28357,301.2984,7.292349,27.575468,5.0455313
661.0139,0.030624617,0.008082134,922.47644,894.22595,225.9848,4.051087,302.41376,305.20563,7.4555783,28.250486,4.3240285
670.6225,0.030903164,0.008132548,936.16644,907.2359,229.23524,3.35676,307.60873,308.95975,7.6134186,28.930506,3.6234958
680.3298,0.031175133,0.008176362,949.9775,920.3618,232.50676,2.6781192,312.87112,312.6009,7.7673597,29.615673,2.9387903
690.12573,0.03144046,0.008212724,963.9103,933.6045,235.81134,2.018211,318.20026,316.10568,7.916329,30.305782,2.272955
700.014,0.031699087,0.008242531,977.96173,946.9613,239.14198,1.3745395,323.5894,319.4935,8.06088,31.000496,1.6234913
710.0007,0.031950966,0.008265682,992.13245,960.43286,242.49352,0.7479535,329.04276,322.75803,8.20065,31.699587,0.9912447
720.1285,0.032196052,0.008270178,1006.42163,974.01874,245.835,0.17585388,334.58554,325.60626,8.323286,32.402805,0.41361323
730.405,0.03243432,0.008129894,1020.8183,987.7087,249.27373,0.053763434,340.19882,324.9339,8.299144,33.109547,0.28611675
740.70355,0.032665756,0.007970612,1035.341,1001.52075,252.83449,0.0,345.79886,323.73218,8.2523,33.820198,0.22707012
751.0719,0.032890532,0.0077978834,1049.9938,1015.459,256.4686,0.0,351.45953,322.11755,8.187729,34.534855,0.22190705
761.55035,0.033108823,0.007628773,1064.7866,1029.5328,260.1283,0.0,357.1955,320.51093,8.123015,35.253834,0.21686128
772.1365,0.033320844,0.0074631968,1079.7167,1043.7396,263.81342,0.0,363.0042,318.91235,8.058138,35.97707,0.21193029
782.8276,0.03352678,0.007301108,1094.7812,1058.0768,267.52417,0.0,368.8859,317.32178,7.9931164,36.70449,0.20711152
793.6196,0.033726823,0.007142396,1109.98,1072.5438,271.26364,0.0,374.83862,315.73907,7.9279165,37.436096,0.20240226
804.50055,0.033921152,0.006987033,1125.3104,1087.1387,275.0423,0.0,380.85464,314.1643,7.862581,38.171825,0.1978001
815.47534,0.03410995,0.0068349256,1140.7705,1101.859,278.85245,0.0,386.93546,312.59738,7.797082,38.91163,0.1933026
826.54956,0.034293383,0.006686021,1156.3596,1116.704,282.68817,0.0,393.0858,311.0383,7.7314444,39.65548,0.1889073
837.724,0.034471605,0.0065402547,1172.0776,1131.6742,286.54883,0.0,399.3071,309.487,7.6656857,40.403397,0.18461207
848.9983,0.034644786,0.0063975495,1187.9242,1146.7687,290.43387,0.0,405.59952,307.94345,7.599804,41.155376,0.1804144
860.37164,0.034813073,0.006257843,1203.8993,1161.9879,294.3447,0.0,411.9615,306.40747,7.5338125,41.911434,0.17631216
871.84344,0.034976605,0.006121089,1220.0023,1177.3308,298.2808,0.0,418.39307,304.87927,7.4677424,42.67154,0.17230324
883.41364,0.03513555,0.005987226,1236.233,1192.7974,302.24213,0.0,424.89447,303.35867,7.4016066,43.435726,0.16838545
895.0547,0.035290014,0.0058561843,1252.5923,1208.3882,306.257,0.0,431.45703,301.84567,7.335411,44.204,0.16455683
906.77454,0.035440147,0.0057279174,1269.0852,1224.1085,310.32245,0.0,438.08548,300.34027,7.269215,44.976566,0.16081521
918.5992,0.035586074,0.005602369,1285.7053,1239.9521,314.40622,0.0,444.7878,298.8423,7.2029953,45.753204,0.15715867
930.5245,0.03572792,0.0054794713,1302.4542,1255.9202,318.51392,0.0,451.5598,297.35178,7.13676,46.533978,0.15358528
942.52905,0.035865802,0.0053591738,1319.3289,1272.01,322.66403,0.0,458.39078,295.86874,7.0705123,47.31879,0.15009306
954.6179,0.035999842,0.0052414304,1336.3267,1288.2191,326.84903,0.0,465.27588,294.39304,7.004263,48.107548,0.14668027
966.8004,0.03613014,0.005126192,1353.4487,1304.5485,331.0607,0.0,472.22815,292.92477,6.938038,48.900295,0.14334513
979.0773,0.036256813,0.0050133946,1370.6959,1320.9989,335.29892,0.0,479.24838,291.46375,6.8718395,49.697067,0.14008576
991.44006,0.03637996,0.004902991,1388.0684,1337.5706,339.5723,0.0,486.329,290.01004,6.805687,50.49787,0.13690053
1003.84845,0.036499687,0.004794941,1405.5658,1354.2632,343.9211,0.0,493.4303,288.56363,6.739605,51.302708,0.13378775
1016.34625,0.036616087,0.004689195,1423.1848,1371.0735,348.29785,0.0,500.59222,287.12442,6.673592,52.111465,0.13074575
1028.9684,0.036729254,0.0045856903,1440.9227,1387.9987,352.66537,0.0,507.85626,285.69238,6.607625,52.92402,0.12777293
1041.7076,0.036839284,0.0044844057,1458.7853,1405.0447,357.03616,0.0,515.18835,284.26752,6.541785,53.74061,0.1248677
1054.5354,0.03694626,0.0043852776,1476.78,1422.2186,361.44638,0.0,522.58344,282.8497,6.4760904,54.561497,0.122028455
1067.4573,0.037050273,0.0042882636,1494.9028,1439.5162,365.886,0.0,530.04004,281.43893,6.4105372,55.386555,0.11925388
1080.4614,0.037151396,0.0041933195,1513.1565,1456.9407,370.36984,0.0,537.56793,280.0353,6.3451486,56.215874,0.1165423
1093.5536,0.037249718,0.0041004186,1531.5349,1474.4858,374.88623,0.0,545.1653,278.6386,6.279935,57.049248,0.11389247
1106.7354,0.037345313,0.0040094946,1550.0337,1492.1472,379.42926,0.0,552.8278,277.2489,6.214852,57.88649,0.11130284
1119.9945,0.037438255,0.0039205244,1568.6533,1509.9255,384.0115,0.0,560.5447,275.86612,6.149943,58.72764,0.108772084
1133.3329,0.037528615,0.0038334571,1587.3894,1527.8169,388.62723,0.0,568.31805,274.4902,6.0851893,59.57252,0.1062988
1146.7552,0.037616473,0.0037482565,1606.2399,1545.8187,393.26935,0.0,576.1528,273.12112,6.0205984,60.421078,0.10388178
1160.2552,0.03770189,0.0036648896,1625.2047,1563.9314,397.94455,0.0,584.04675,271.7589,5.956196,61.273293,0.10151975
1173.8126,0.037784923,0.0035833125,1644.2867,1582.1575,402.6755,0.0,591.9825,270.40353,5.8919926,62.12925,0.09921143
1187.4618,0.037865646,0.0035034928,1663.4944,1600.505,407.43585,0.0,599.9882,269.05487,5.8280406,62.98929,0.09695557
1201.207,0.037944134,0.003425389,1682.8275,1618.9741,412.22144,0.0,608.06683,267.71292,5.764339,63.853436,0.09475104
1215.045,0.038020425,0.003348967,1702.2847,1637.5631,417.03406,0.0,616.214,266.3777,5.7008953,64.72159,0.092596605
1228.9669,0.038094584,0.0032741965,1721.864,1656.2701,421.8804,0.0,624.438,265.04916,5.637721,65.59369,0.0904912
1242.9807,0.03816667,0.0032010295,1741.5664,1675.0967,426.754,0.0,632.72986,263.7271,5.5748057,66.46979,0.08843359
1257.0833,0.03823673,0.003129455,1761.3905,1694.0406,431.6558,0.0,641.0902,262.41183,5.5121927,67.349815,0.086422846
1271.2799,0.03830482,0.0030594177,1781.3345,1713.1007,436.5797,0.0,649.5223,261.103,5.449846,68.233696,0.08445772
1285.5619,0.038371008,0.0029908943,1801.3945,1732.2733,441.53018,0.0,658.01886,259.80072,5.38778,69.12132,0.08253733
1299.925,0.038435325,0.0029238581,1821.5719,1751.5591,446.51282,0.0,666.5819,258.5049,5.326018,70.01271,0.0806606
1314.375,0.038497828,0.0028582783,1841.8636,1770.9559,451.51923,0.0,675.2138,257.21564,5.264559,70.90775,0.07882659
1328.9072,0.038558565,0.0027941125,1862.2719,1790.4653,456.55545,0.0,683.90936,255.93274,5.203397,71.806526,0.07703425
1343.5236,0.038617577,0.0027313381,1882.7969,1810.0878,461.62033,0.0,692.66907,254.65625,5.1425548,72.709045,0.07528265
1358.2241,0.038674906,0.002669936,1903.4362,1829.8212,466.71146,0.0,701.4955,253.38615,5.0820527,73.61522,0.073570944
1373.0134,0.038730606,0.0026098613,1924.1912,1849.666,471.82523,0.0,710.38434,252.12239,5.021872,74.52509,0.07189812
1387.8866,0.038784713,0.0025510928,1945.0565,1869.6182,476.96198,0.0,719.3312,250.8649,4.96202,75.43845,0.070263304
1402.837,0.038837265,0.0024936064,1966.0275,1889.6724,482.12317,0.0,728.3371,249.61372,4.9024982,76.35513,0.06866568
1417.8622,0.0388883,0.0024373673,1987.1075,1909.8323,487.3152,0.0,737.4045,248.36877,4.843311,77.27523,0.067104384
1432.9718,0.038937863,0.0023823571,2008.298,1930.0994,492.5292,0.0,746.53625,247.12999,4.7844834,78.19884,0.065578565
1448.1671,0.038985994,0.0023285467,2029.5984,1950.4728,497.7637,0.0,755.7288,245.89742,4.726015,79.125916,0.0640875
1463.4182,0.039032716,0.0022759147,2051.0154,1970.9589,503.05496,0.0,764.9834,244.671,4.667936,80.05671,0.06263029
1478.745,0.039078075,0.0022244274,2072.5454,1991.5542,508.37912,0.0,774.3014,243.45068,4.6102266,80.99108,0.061206225
1494.1556,0.0391221,0.00217407,2094.1885,2012.2593,513.729,0.0,783.6845,242.2365,4.552912,81.92905,0.05981458
1509.6501,0.039164834,0.0021248101,2115.9443,2033.0736,519.1035,0.0,793.134,241.02832,4.49598,82.870605,0.0584545
