con,Omega,ygross,ynet,inv,Eind,scc,Dam,Emissions
77.58859,0.0017051001,105.17594,104.996605,27.35951,31.619236,24.338829,0.17933552,34.219234
79.77129,0.0018181846,108.585945,108.38852,28.56443,31.999632,24.886595,0.1974293,34.540512
82.151024,0.0019361047,112.13966,111.922554,29.714483,32.405563,25.480593,0.21711415,34.88867
84.678955,0.002058916,115.82072,115.582245,30.841944,32.825695,26.10746,0.23846512,35.252342
87.342964,0.0021866756,119.61718,119.35562,31.946909,33.25388,26.765402,0.26156396,35.62535
90.1247,0.0023194398,123.52162,123.23512,33.040257,33.68873,27.45204,0.28650096,36.006275
93.01789,0.002457266,127.52568,127.21232,34.119755,34.125168,28.162607,0.3133645,36.390026
96.00309,0.0026002103,131.6212,131.27898,35.1966,34.55833,28.896166,0.34224284,36.771687
99.0693,0.0027483283,135.80608,135.43283,36.2795,34.986465,29.64942,0.37323964,37.1495
102.2231,0.0029016722,140.07709,139.67062,37.35853,35.40585,30.422827,0.40645772,37.5197
105.451225,0.0030602938,144.43057,143.98859,38.44316,35.815044,31.214684,0.442,37.880833
108.739845,0.003224239,148.86253,148.38255,39.54307,36.21223,32.02123,0.47996834,38.231045
112.09169,0.0033935541,153.37201,152.85152,40.654446,36.59492,32.84386,0.52047616,38.567837
115.50934,0.0035682798,157.95897,157.39532,41.774582,36.964344,33.68314,0.56364185,38.8924
118.994835,0.0037484518,162.62262,162.01303,42.90046,37.3198,34.537376,0.6095831,39.20402
122.53468,0.003934105,167.36064,166.70222,44.04318,37.660286,35.40821,0.6584143,39.50166
126.14294,0.0041252673,172.1738,171.46353,45.189304,37.98633,36.296104,0.7102629,39.785835
129.80742,0.0043219635,177.06058,176.29533,46.34945,38.299175,37.197403,0.76524943,40.057762
133.54778,0.004524215,182.02007,181.19656,47.502724,38.594776,38.116325,0.82349795,40.31338
137.32043,0.0047320384,187.04918,186.16405,48.689445,38.869087,39.04615,0.88512385,40.54862
141.14328,0.0049454444,192.15198,191.20169,49.89582,39.129265,39.989067,0.9502769,40.770603
145.00969,0.00516444,197.33041,196.31131,51.13031,39.375935,40.94516,1.019101,40.979954
148.95297,0.005389026,202.58408,201.49234,52.358967,39.60784,41.919216,1.0917308,41.175385
152.94643,0.0056191985,207.91039,206.7421,53.60584,39.824715,42.906292,1.1682898,41.356617
156.98637,0.005854954,213.31015,212.06123,54.87521,40.02564,43.908394,1.248921,41.52271
161.07635,0.0060962792,218.78563,217.45184,56.165607,40.21182,44.926163,1.3337783,41.674854
165.23013,0.0063431603,224.33664,222.91364,57.462975,40.38217,45.957584,1.4230032,41.81194
169.45102,0.006595574,229.96228,228.44556,58.76285,40.53514,47.005024,1.5167333,41.9324
173.73279,0.0068534967,235.6606,234.0455,60.06952,40.673985,48.06742,1.6150992,42.03947
178.04462,0.0071168994,241.43225,239.714,61.414196,40.796295,49.143444,1.7182492,42.130737
182.40408,0.0073857484,247.28178,245.45543,62.783833,40.90647,50.231625,1.8263611,42.21057
186.82993,0.007660004,253.20934,251.26973,64.159546,41.002556,51.335167,1.9395844,42.277
191.30914,0.007939626,259.2143,257.15622,65.55379,41.086617,52.454964,2.0580647,42.33208
195.84224,0.0082245665,265.2962,263.1143,66.96518,41.1554,53.587967,2.1819463,42.372547
200.44179,0.008514778,271.45575,269.14435,68.3817,41.209328,54.737614,2.3113854,42.3988
205.10623,0.008810206,277.69144,275.24493,69.80322,41.246933,55.904015,2.446519,42.40936
209.82376,0.009110794,284.0053,281.41782,71.24352,41.27121,57.08744,2.587514,42.407207
214.60278,0.009416479,290.39578,287.6613,72.692474,41.28136,58.284843,2.7345057,42.39153
219.3844,0.009727193,296.8638,293.9761,74.21013,41.285,59.49314,2.8876512,42.369926
224.26488,0.01004287,303.41946,300.37222,75.70959,41.27337,60.722843,3.047202,42.333626
229.17311,0.010363441,310.05457,306.84134,77.253555,41.244812,61.964546,3.2132323,42.280964
234.16144,0.010688828,316.76807,313.3822,78.78861,41.201958,63.222553,3.3858795,42.214546
239.20706,0.011018956,323.5623,319.99695,80.339714,41.1449,64.494,3.5653186,42.134464
244.28297,0.0113537405,330.43753,326.68582,81.93438,41.07942,65.779106,3.7517018,42.046482
249.43146,0.011693096,337.39542,333.45023,83.53156,41.00087,67.07988,3.9451973,41.94595
254.6475,0.012036935,344.43167,340.2858,85.13162,40.90777,68.393654,4.1459017,41.83136
259.92358,0.012385169,351.54877,347.1948,86.74461,40.80258,69.723885,4.3539906,41.70517
265.25827,0.012737702,358.74606,354.17645,88.37104,40.682816,71.07387,4.5696,41.564877
270.62613,0.01309444,366.02594,361.233,90.03866,40.552032,72.44104,4.7929044,41.414043
276.05466,0.013455279,373.38934,368.36533,91.72116,40.41347,73.822784,5.024058,41.255886
281.55,0.013820128,380.83435,375.5712,93.40983,40.261482,75.22065,5.26318,41.084736
287.11954,0.014188876,388.3622,382.85178,95.09838,40.097687,76.63553,5.5104237,40.90222
292.74402,0.014561424,395.9701,390.2042,96.80353,39.925404,78.06521,5.765888,40.711647
298.41382,0.014937663,403.65924,397.6295,98.535675,39.74067,79.50703,6.029726,40.509033
304.12347,0.015317487,411.43124,405.12915,100.30173,39.54425,80.96596,6.3020926,40.295147
309.8903,0.015700784,419.28677,412.70367,102.08502,39.338394,82.44419,6.583131,40.072212
315.70206,0.016087435,427.22885,420.35587,103.900536,39.121727,83.93731,6.873017,39.83886
321.57126,0.016477337,435.25897,428.08707,105.73682,38.892563,85.44354,7.171909,39.59339
327.52658,0.016870374,443.37534,435.89545,107.563446,38.65158,86.97069,7.479908,39.33648
333.53067,0.017266426,451.57935,443.78217,109.41919,38.40157,88.512115,7.7971616,39.070896
339.57495,0.017665375,459.87106,451.74722,111.3127,38.143635,90.06728,8.123795,38.797737
345.71313,0.018067101,468.2497,459.7898,113.189156,37.87538,91.64165,8.459915,38.51461
351.9023,0.018471489,476.71436,467.90875,115.09,37.592583,93.2317,8.805624,38.217278
358.1815,0.018878415,485.26608,476.10504,116.97754,37.29978,94.845406,9.161055,37.91027
364.53052,0.019287758,493.90067,484.37442,118.86753,36.995453,96.47383,9.526237,37.59206
370.93155,0.01969939,502.61658,492.71533,120.77625,36.679268,98.11809,9.901239,37.262314
377.38013,0.020113183,511.41235,501.1262,122.7065,36.350685,99.77666,10.28613,36.920475
383.89658,0.020529017,520.2879,509.60684,124.6379,36.012104,101.45287,10.680998,36.56894
390.35556,0.020946763,529.2493,518.16327,126.70248,35.6694,103.137085,11.086061,36.213573
396.92163,0.021366293,538.30664,526.805,128.74498,35.323563,104.84089,11.501617,35.855362
403.55942,0.02178747,547.46344,535.5356,130.80437,34.97222,106.56061,11.927844,35.49193
410.24545,0.022210179,556.71265,544.34796,132.89664,34.61362,108.298676,12.364686,35.121513
417.0068,0.022634292,566.05255,553.24036,134.99321,34.248497,110.05812,12.8122,34.74484
423.8536,0.023059681,575.4825,562.21204,137.08342,33.87983,111.836586,13.270442,34.364887
430.76083,0.023486223,584.99994,571.2605,139.18927,33.50264,113.63437,13.739438,33.97667
437.72626,0.023913791,594.60565,580.38635,141.31343,33.11495,115.44844,14.219275,33.578197
444.78122,0.024342265,604.2976,589.5877,143.42253,32.716644,117.28182,14.709972,33.16936
451.9069,0.024771517,614.0737,598.86224,145.5329,32.30558,119.13155,15.211538,32.748
459.07117,0.02520143,623.9342,608.21014,147.67645,31.879725,120.99137,15.724034,32.312084
466.26257,0.025631871,633.88135,617.6338,149.86755,31.44359,122.86448,16.247564,31.866121
473.47833,0.026062705,643.9181,627.1358,152.11153,30.997482,124.751335,16.782248,31.410406
480.7738,0.026493808,654.04755,636.7193,154.3568,30.546799,126.65815,17.32821,30.950335
488.10532,0.02692505,664.26953,646.3841,156.64688,30.093212,128.59195,17.885492,30.487574
495.49854,0.027356306,674.58936,656.1351,158.96118,29.636312,130.54372,18.454275,30.021702
502.9849,0.027787447,685.0034,665.9689,161.2647,29.175419,132.51521,19.034498,29.552048
510.556,0.028218342,695.5087,675.8826,163.56276,28.709599,134.50491,19.626102,29.077667
518.173,0.02864887,706.10236,685.87335,165.89116,28.237688,136.50903,20.229034,28.597387
525.8484,0.029076958,716.78314,695.94135,168.23811,27.763203,138.53326,20.841873,28.114721
533.60095,0.029502476,727.56586,706.1009,170.59882,27.284052,140.58311,21.464994,27.627577
541.4495,0.029925326,738.43945,716.34143,172.94334,26.796322,142.65195,22.098042,27.132038
549.31525,0.030345397,749.4044,726.6635,175.35098,26.300768,144.73291,22.740978,26.628847
557.2731,0.030762576,760.4587,737.065,177.74539,25.800678,146.83101,23.393667,26.121302
565.27594,0.031176765,771.5952,747.5394,180.16708,25.29719,148.94324,24.055841,25.61052
573.33905,0.03158785,782.8187,758.0912,182.60556,24.7909,151.07205,24.727562,25.097105
581.4459,0.031995732,794.13745,768.72845,185.08481,24.279284,153.21211,25.409012,24.57853
589.58093,0.032400306,805.5493,779.4493,187.61826,23.760757,155.37846,26.100048,24.053198
597.8177,0.032801475,817.0606,790.2598,190.13943,23.241661,157.56795,26.800797,23.527452
606.15155,0.033199154,828.66376,801.1529,192.64532,22.719627,159.77727,27.510935,22.99892
614.5453,0.03359323,840.3532,812.123,195.16812,22.195559,162.00356,28.230179,22.468502
623.00073,0.033983625,852.1275,823.16907,197.70482,21.67138,164.24706,28.958382,21.938114
631.4833,0.034370244,863.99084,834.2953,200.2941,21.143888,166.49896,29.695574,21.40456
640.0494,0.034753006,875.94653,845.5047,202.88255,20.615627,168.76703,30.441774,20.87037
648.65753,0.035131816,887.9917,856.7949,205.50835,20.08024,171.05592,31.19676,20.329191
657.2831,0.035506602,900.1277,868.1672,208.19733,19.537878,173.36014,31.960478,19.78117
665.99347,0.035877276,912.3631,879.63,210.89127,18.993126,175.694,32.733105,19.230886
674.7973,0.03624376,924.696,891.18164,213.58078,18.451471,178.0522,33.51446,18.683826
683.6768,0.036605977,937.1247,902.8204,216.28154,17.91004,180.43254,34.304367,18.137108
692.58154,0.03696385,949.64746,914.54486,219.0426,17.370111,182.82414,35.102627,17.59202
701.5353,0.037317306,962.26715,926.35785,221.8427,16.829042,185.22507,35.909214,17.045906
710.62646,0.037666272,974.98004,938.2562,224.58945,16.283815,187.66127,36.72386,16.495747
719.74023,0.03801069,987.77637,950.2302,227.38472,15.715228,190.10379,37.54606,15.922339
728.91547,0.03835048,1000.6643,962.28845,230.2024,15.148049,192.56604,38.37596,15.350451
738.1929,0.03868558,1013.6488,974.43524,233.00642,14.583628,195.05132,39.21359,14.781427
747.51245,0.03901591,1026.7251,986.66644,235.8516,14.0153055,197.54526,40.058613,14.208608
756.8708,0.039341416,1039.8947,998.98376,238.74478,13.454668,200.05759,40.91093,13.643576
766.2765,0.03966203,1053.1611,1011.3907,241.68192,12.905043,202.59682,41.770508,13.089655
775.774,0.0399777,1066.5348,1023.8973,244.62769,12.362418,205.15273,42.637608,12.542833
785.34045,0.04028836,1080.0013,1036.4899,247.58983,11.818579,207.72823,43.511482,11.994891
794.9863,0.040593952,1093.5614,1049.1694,250.56035,11.282277,210.32033,44.39198,11.45458
804.69696,0.04089445,1107.2217,1061.9425,253.55414,10.7219095,212.93533,45.279224,10.890296
814.49744,0.041189812,1120.9698,1074.7974,256.5376,10.153739,215.56905,46.17254,10.318296
824.4041,0.041479968,1134.7993,1087.7279,259.49023,9.586931,218.2189,47.071438,9.747746
834.4091,0.041764867,1148.7129,1100.737,262.4232,9.024532,220.88564,47.97584,9.18169
844.4343,0.042044472,1162.7102,1113.8247,265.4156,8.471178,223.5662,48.885536,8.6247635
854.5453,0.042318728,1176.7858,1126.9857,268.39667,7.9243217,226.26477,49.800076,8.074415
864.6751,0.042587604,1190.9437,1140.2244,271.4384,7.3893623,228.97586,50.719444,7.536043
874.81366,0.042851046,1205.2001,1153.556,274.5666,6.868186,231.69566,51.644085,7.0115314
885.06683,0.043109044,1219.5573,1166.9834,277.6774,6.3566866,234.43646,52.57395,6.4967723
895.4217,0.043361563,1234.0039,1180.4956,280.77267,5.8535542,237.19528,53.50834,5.9904547
905.8495,0.043608587,1248.536,1194.089,283.8783,5.361335,239.96861,54.44689,5.4951224
916.294,0.043850094,1263.1638,1207.774,287.06033,4.8789496,242.74895,55.389854,5.009695
926.8313,0.04408608,1277.8912,1221.554,290.24567,4.4044104,245.55171,56.33721,4.532183
937.4272,0.044316527,1292.7047,1235.4165,293.4572,3.9416847,248.37337,57.288185,4.066552
948.10077,0.04454143,1307.6074,1249.3646,296.67953,3.4925745,251.21191,58.2427,3.614603
958.8665,0.04476081,1322.601,1263.4003,299.89902,3.0536664,254.06892,59.200687,3.1729202
969.70105,0.044974655,1337.6799,1277.5182,303.13467,2.6273458,256.94305,60.161694,2.743888
980.61255,0.045182984,1352.8481,1291.7224,306.38266,2.2152264,259.83035,61.12572,2.3291187
991.6357,0.04538581,1368.1064,1306.0138,309.60876,1.8156165,262.7382,62.09262,1.9269193
1002.73975,0.04558315,1383.4443,1320.3826,312.8339,1.4281791,265.66885,63.061752,1.5369514
1013.8572,0.045775037,1398.8674,1334.8341,316.13397,1.0633693,268.61697,64.0332,1.169668
1025.1227,0.045961488,1414.3877,1349.3804,319.3864,0.72487396,271.5825,65.00736,0.8287558
1036.4653,0.04614254,1429.9855,1364.0023,322.64584,0.41858685,274.56082,65.98316,0.52010655
1048.0142,0.04631825,1445.661,1378.7006,325.79846,0.20372437,277.56375,66.960495,0.3029358
1059.4097,0.046488658,1461.3969,1393.4585,329.18808,0.08287417,280.53134,67.93838,0.17982973
1070.7655,0.04665389,1477.2361,1408.3171,332.72977,0.008374483,283.49332,68.9188,0.10312552
1082.1265,0.046814032,1493.1807,1423.2788,336.3858,0.0,286.4805,69.9018,0.092596605
1093.6278,0.046969242,1509.264,1438.375,340.0377,0.0,289.4887,70.888985,0.0904912
1105.2156,0.047119685,1525.4648,1453.5853,343.7169,0.0,292.51068,71.879425,0.08843359
1116.9261,0.04726553,1541.7737,1468.9009,347.37775,0.0,295.55746,72.87274,0.086422846
1128.7283,0.04740692,1558.1812,1484.3125,351.043,0.0,298.617,73.86857,0.08445772
1140.6821,0.047543995,1574.6877,1499.8209,354.6529,0.0,301.69922,74.86694,0.08253733
1152.7316,0.047676895,1591.2845,1515.4171,358.25464,0.0,304.79828,75.8675,0.0806606
1164.8643,0.047805782,1607.9629,1531.093,361.85242,0.0,307.91318,76.86993,0.07882659
1177.093,0.047930762,1624.7181,1546.8441,365.42917,0.0,311.03275,77.87398,0.07703425
1189.3745,0.048051987,1641.5427,1562.6633,369.02066,0.0,314.15997,78.87939,0.07528265
1201.7026,0.04816955,1658.4401,1578.5538,372.6365,0.0,317.3038,79.886314,0.073570944
1214.0852,0.04828358,1675.4152,1594.52,376.2734,0.0,320.45782,80.89504,0.07189812
1226.5496,0.048394192,1692.4718,1610.5659,379.90775,0.0,323.62064,81.90581,0.070263304
1238.9684,0.04850147,1709.6144,1626.6956,383.67078,0.0,326.78058,82.918816,0.06866568
1251.4442,0.048605546,1726.8419,1642.9078,387.4618,0.01091717,329.95187,83.93409,0.078021556
1264.115,0.0487065,1744.15,1659.1985,391.13254,0.007926434,333.16443,84.95145,0.07350501
1276.8286,0.048804466,1761.5243,1675.5542,394.82385,0.0,336.38208,85.97026,0.0640875
1289.6301,0.04889949,1778.9846,1691.9932,398.51212,0.0,339.61566,86.99144,0.06263029
1302.4792,0.048991665,1796.5245,1708.5098,402.23013,0.0,342.85654,88.01474,0.061206225
1315.2167,0.049081106,1814.1395,1725.0996,406.13242,0.0,346.07285,89.03997,0.05981458
1328.0564,0.049167875,1831.834,1741.7667,410.00937,0.0,349.308,90.06738,0.0584545
1340.9989,0.049252056,1849.616,1758.5188,413.8681,0.0,352.56055,91.09738,0.0571254
1354.0237,0.049333718,1867.4816,1775.3519,417.7252,0.0,355.82803,92.12981,0.055826504
1367.1216,0.049412932,1885.4237,1792.2596,421.58328,0.0,359.1087,93.164314,0.054557145
1380.2606,0.04948979,1903.4384,1809.2375,425.4699,0.0,362.4012,94.20076,0.05331663
1393.4666,0.049564354,1921.5299,1826.2905,429.3645,0.0,365.70706,95.23938,0.052104335
1406.7448,0.049636677,1939.6962,1843.416,433.2589,0.0,369.0258,96.28007,0.0509196
1420.0907,0.049706824,1957.9331,1860.6105,437.15405,0.0,372.3566,97.32263,0.049761795
1433.5033,0.049774867,1976.2407,1877.8735,441.05057,0.0,375.69928,98.36711,0.048630323
1446.9816,0.049840868,1994.6171,1895.2036,444.94846,0.0014575752,379.05365,99.413445,0.04898216
1460.4775,0.04990488,2013.0609,1912.5994,448.89453,0.005420392,382.4101,100.46157,0.05186441
1473.9825,0.049966954,2031.575,1930.0636,452.89798,0.0022626282,385.75113,101.51162,0.0476506
1487.5311,0.05002715,2050.1663,1947.6023,456.9324,0.0,389.09964,102.563965,0.044355944
1501.0914,0.05008552,2068.839,1965.2201,461.03406,0.0,392.45908,103.618866,0.043347377
1514.7484,0.050142113,2087.5935,1982.9172,465.1178,0.0,395.8353,104.676346,0.04236175
1528.4957,0.050196983,2106.4358,2000.699,469.1951,0.0,399.22748,105.73672,0.041398562
1542.3187,0.05025016,2125.3572,2018.5576,473.27383,0.0,402.63623,106.799545,0.040457286
1556.2095,0.050301705,2144.3528,2036.4882,477.3558,0.0,406.06177,107.86461,0.0395374
1570.1672,0.050351657,2163.4219,2054.49,481.44186,0.0,409.499,108.931885,0.038638443
1584.1917,0.05040006,2182.5593,2072.558,485.52707,0.0,412.9448,110.00112,0.037759893
1598.2573,0.050446957,2201.7644,2090.6921,489.63635,0.0,416.39734,111.07232,0.0369013
1612.3531,0.05049239,2221.036,2108.8904,493.77948,0.0,419.85443,112.145424,0.03606223
1626.5049,0.050536398,2240.3696,2127.1494,497.92715,0.0,423.3211,113.220215,0.03524224
1640.7258,0.05057901,2259.765,2145.4683,502.06482,0.0,426.79483,114.29668,0.034440946
1655.0065,0.05062027,2279.2207,2163.8462,506.20123,0.0,430.27637,115.37476,0.03365783
1669.34,0.0506602,2298.7349,2182.2805,510.34122,0.0,433.76678,116.45437,0.03289253
1683.7173,0.050698854,2318.3093,2200.7737,514.4956,0.0,437.27072,117.53562,0.032144625
1698.1487,0.05073625,2337.9453,2219.3267,518.6555,0.0,440.78503,118.618576,0.031413745
1712.6345,0.050772432,2357.643,2237.9397,522.8203,0.0,444.30872,119.70327,0.030699482
1727.1749,0.05080742,2377.4006,2256.611,526.9886,0.0,447.84174,120.78959,0.03000147
1741.7611,0.05084125,2397.2185,2275.3408,531.1692,0.0,451.3767,121.87759,0.029319309
1756.3868,0.050873965,2417.0852,2294.1184,535.35767,0.0,454.9217,122.9667,0.028652666
1771.0579,0.050905578,2437.0068,2312.9497,539.55383,0.0,458.47626,124.05726,0.028001158
1785.7566,0.05093613,2456.9866,2331.8374,543.77856,0.0,462.03787,125.14939,0.027364487
1800.5393,0.050965626,2477.0327,2350.7893,547.98303,0.0,465.60452,126.24353,0.026742306
1815.2045,0.050994102,2497.1492,2369.8093,552.3725,0.0,469.16403,127.339874,0.026134232
1829.855,0.051021602,2517.3467,2388.9077,556.8551,0.0,472.72678,128.43907,0.025539985
1844.5872,0.051048122,2537.6267,2408.0857,561.33466,0.0,476.30237,129.54108,0.02495924
1859.4025,0.051073708,2557.9766,2427.331,565.7985,0.0,479.88858,130.64534,0.024391735
1874.3145,0.051098377,2578.3948,2446.643,570.2317,0.0,483.49655,131.75179,0.0238371
1889.3132,0.051122144,2598.8699,2466.01,574.63293,0.0,487.11884,132.8598,0.02329513
1904.3522,0.051145032,2619.397,2485.4277,579.04376,0.0,490.74963,133.96915,0.022765465
1919.4635,0.05116707,2639.974,2504.8943,583.4313,0.0,494.3894,135.07974,0.02224785
1934.6548,0.05118827,2660.6067,2524.415,587.7922,0.0,498.02374,136.19188,0.021741994
1949.8679,0.05120867,2681.2961,2543.9907,592.18585,0.0,501.65054,137.3056,0.0212476
1965.0278,0.05122827,2702.0398,2563.619,596.68524,1.4557987e-05,505.27533,138.42082,0.020779015
1980.2482,0.051247094,2722.8396,2583.302,601.17834,0.0,508.92346,139.53761,0.020292297
1995.5312,0.05126517,2743.6965,2603.0403,605.66394,0.0,512.5824,140.65607,0.019830907
2010.8649,0.0512825,2764.6094,2622.8333,610.1525,0.0,516.2498,141.77608,0.019379998
2026.2493,0.051299118,2785.5732,2642.6758,614.6402,0.0,519.9264,142.89746,0.01893933
2041.6768,0.051315036,2806.5854,2662.5654,619.13116,0.0,523.6096,144.02002,0.018508693
2057.1458,0.051330265,2827.6455,2682.502,623.6272,0.00019052617,527.2997,145.1438,0.018278383
2072.641,0.051344823,2848.7532,2702.4846,628.1427,0.0,530.9961,146.26874,0.017676596
2088.2288,0.051358737,2869.9136,2722.5183,632.61694,0.0,534.71063,147.39514,0.017274654
2103.8594,0.051372007,2891.1233,2742.6008,637.0961,0.0,538.43207,148.52283,0.016881866
2119.5337,0.05138465,2912.3818,2762.7302,641.57825,0.0,542.1607,149.65172,0.01649801
2135.2488,0.051396687,2933.6873,2782.9058,646.06555,0.0,545.8958,150.78181,0.016122868
2150.9326,0.051408134,2955.038,2803.1252,650.62744,0.0,549.6274,151.913,0.015756248
2166.5728,0.051419012,2976.4324,2823.3872,655.2753,0.0,553.35876,153.04521,0.015397999
2182.2654,0.051429305,2997.8687,2843.6902,659.9116,0.0,557.0983,154.1783,0.015047898
2198.026,0.051439047,3019.3564,2864.0435,664.5297,0.0,560.8491,155.3128,0.014705737
