con,Omega,ygross,ynet,inv,Eind,scc,Dam,Emissions
77.25112,0.0017051001,105.17594,104.996605,27.745485,36.845238,18.1345,0.17933552,39.445236
79.769135,0.0017812342,108.69786,108.50425,28.735117,37.5043,18.564236,0.19361635,40.04518
82.388374,0.0018610883,112.3356,112.12653,29.73816,38.173878,19.026838,0.2090665,40.65699
85.105415,0.0019447055,116.08289,115.85714,30.751717,38.850697,19.5201,0.22574703,41.277344
87.903885,0.002032129,119.93665,119.692924,31.789043,39.53284,20.039606,0.24372678,41.904312
90.78628,0.0021234048,123.896164,123.63307,32.846794,40.219086,20.589962,0.26308173,42.536636
93.7611,0.0022185787,127.9615,127.6776,33.916496,40.908707,21.167627,0.28389266,43.17356
96.81837,0.0023176977,132.12842,131.82217,35.003807,41.59953,21.76764,0.30623373,43.81289
99.95527,0.002420809,136.3933,136.06313,36.10785,42.289635,22.396551,0.3301821,44.452667
103.175606,0.002527958,140.75699,140.40115,37.225544,42.97861,23.051884,0.35582775,45.09246
106.47082,0.0026391922,145.21945,144.8362,38.365383,43.665993,23.726538,0.38326204,45.73178
109.84057,0.0027545549,149.77808,149.36551,39.524933,44.350132,24.422329,0.41257194,46.368946
113.28925,0.0028740917,154.43042,153.98659,40.69733,45.02995,25.143835,0.44384724,47.002865
116.81116,0.0029978438,159.17566,158.69849,41.887314,45.7047,25.88576,0.47718376,47.632755
120.40515,0.0031258517,164.01292,163.50024,43.095093,46.373676,26.645468,0.51268005,48.257893
124.07081,0.003258156,168.94106,168.39061,44.319798,47.035965,27.4232,0.55043626,48.87734
127.800255,0.0033947916,173.95825,173.36772,45.567455,47.690937,28.220602,0.59055203,49.490444
131.59477,0.0035357943,179.06667,178.43352,46.838753,48.338547,29.036646,0.6331429,50.09713
135.45752,0.003681196,184.26837,183.59004,48.132523,48.97925,29.87143,0.6783279,50.697857
139.38654,0.003831026,189.55858,188.83237,49.445816,49.611168,30.72315,0.7262038,51.2907
143.38274,0.003985312,194.93803,194.16115,50.778416,50.234375,31.593891,0.7768889,51.875713
147.45158,0.004144078,200.40855,199.57805,52.126457,50.84903,32.483685,0.83050865,52.45305
151.58632,0.0043073464,205.96968,205.08249,53.496174,51.454655,33.390297,0.8871828,53.0222
155.78148,0.0044751354,211.62129,210.67427,54.892773,52.051044,34.317554,0.94703394,53.582947
160.04738,0.0046474608,217.36377,216.35359,56.30621,52.63783,35.262375,1.0101895,54.134903
164.3884,0.004824336,223.19781,222.12102,57.732628,53.215244,36.22863,1.0767813,54.678276
168.79243,0.0050057736,229.12439,227.97745,59.185,53.782986,37.212173,1.1469449,55.212753
173.26566,0.005191778,235.14128,233.92046,60.654808,54.34059,38.215176,1.2208012,55.737846
177.80678,0.0053823562,241.2502,239.95172,62.144928,54.88797,39.23463,1.2984946,56.253456
182.4083,0.005577509,247.45067,246.0705,63.66221,55.42502,40.268112,1.3801583,56.759464
187.0806,0.005777234,253.74284,252.27692,65.19633,55.951492,41.319603,1.4659319,57.255592
191.81816,0.0059815277,260.12775,258.5718,66.75364,56.467545,42.391624,1.5559616,57.74199
196.61539,0.0061903824,266.60657,264.95618,68.34079,56.973164,43.48111,1.6503966,58.21863
201.48672,0.006403789,273.17825,271.4289,69.94217,57.467957,44.5896,1.7493759,58.68511
206.42369,0.006621734,279.84464,277.9916,71.56791,57.95229,45.716183,1.8530568,59.14176
211.41997,0.0068442016,286.60522,284.64365,73.22366,58.425766,46.856663,1.9615837,59.588196
216.49275,0.007071172,293.46103,291.3859,74.893166,58.8885,48.01773,2.0751133,60.024498
221.63663,0.007302626,300.41354,298.21973,76.58309,59.340744,49.197533,2.1938076,60.450916
226.84253,0.0075385384,307.46213,305.1443,78.301765,59.782127,50.394356,2.317815,60.867054
232.12964,0.007778883,314.6074,312.16013,80.03047,60.212673,51.616665,2.4472945,61.27293
237.48367,0.008023631,321.84836,319.26596,81.78229,60.632076,52.85632,2.5823922,61.66822
242.89885,0.00827275,329.1862,326.4629,83.56403,61.04056,54.11056,2.723275,62.05315
248.3772,0.008526207,336.62054,333.75046,85.37325,61.43791,55.380817,2.8700964,62.42747
253.9246,0.008783964,344.15436,341.13132,87.2067,61.82462,56.67243,3.0230393,62.79168
259.54648,0.009045986,351.7875,348.60522,89.058754,62.2004,57.986317,3.182265,63.145477
265.23712,0.009312228,359.51862,356.17072,90.93357,62.56515,59.316338,3.3479197,63.48874
270.9952,0.009582649,367.34885,363.82864,92.83345,62.91889,60.663322,3.520175,63.821476
276.82468,0.009857203,375.28143,371.5822,94.757515,63.262077,62.03011,3.6992252,64.14414
282.71625,0.010135843,383.31543,379.43024,96.714,63.594646,63.40953,3.8852253,64.456665
288.67627,0.01041852,391.45135,387.373,98.69676,63.916355,64.80891,4.078344,64.758766
294.71768,0.010705185,399.6871,395.40836,100.69068,64.22705,66.23243,4.2787247,65.0503
300.8377,0.010995784,408.0255,403.53894,102.70122,64.52703,67.67872,4.48656,65.33157
307.02213,0.0112902615,416.4688,411.76678,104.74467,64.81674,69.139984,4.702042,65.60298
313.28278,0.011588563,425.01575,420.0904,106.80761,65.095665,70.621414,4.9253216,65.86403
319.6109,0.011890631,433.67163,428.51498,108.904076,65.36483,72.12452,5.156629,66.11573
326.01123,0.012196406,442.42822,437.03217,111.02091,65.6227,73.64649,5.3960333,66.35653
332.48508,0.01250583,451.2866,445.64282,113.157745,65.869705,75.18793,5.6437135,66.586845
339.0292,0.012818838,460.24814,454.3483,115.3191,66.105896,76.745186,5.8998456,66.806725
345.63522,0.013135371,469.3175,463.15286,117.51759,66.33194,78.321075,6.1646595,67.01683
352.32602,0.013455362,478.5,472.0616,119.73556,66.54865,79.92467,6.4383907,67.21798
359.0911,0.013778747,487.78625,481.06516,121.97406,66.75449,81.54753,6.721083,67.4086
365.92816,0.014105462,497.17722,490.1643,124.236115,66.9497,83.19002,7.012914,67.58893
372.82916,0.014435439,506.67285,499.35883,126.52965,67.13444,84.84849,7.3140454,67.759125
379.80026,0.014768611,516.27747,508.65277,128.85254,67.30912,86.525,7.624701,67.91961
386.85098,0.0151049085,525.99054,518.04553,131.19455,67.4736,88.226166,7.945039,68.07021
393.97906,0.015444264,535.8156,527.54034,133.56126,67.628586,89.950874,8.275278,68.211624
401.1714,0.015786605,545.7472,537.1317,135.96034,67.77325,91.69571,8.615496,68.34303
408.43597,0.016131865,555.79083,546.8249,138.3889,67.908295,93.45899,8.965942,68.46513
415.7828,0.016479969,565.944,556.6172,140.83438,68.03348,95.24317,9.326739,68.577644
423.21088,0.01683085,576.20734,566.5093,143.29837,68.14885,97.04771,9.698058,68.68065
430.70465,0.017184433,586.58124,576.50116,145.79651,68.25453,98.867966,10.080065,68.77424
438.27005,0.017540647,597.063,586.5901,148.32005,68.350204,100.70312,10.47287,68.858086
445.91187,0.01789942,607.6565,596.7798,150.86792,68.4364,102.55897,10.8766985,68.93274
453.6301,0.018260682,618.3615,607.06976,153.4397,68.51313,104.43661,11.291703,68.99818
461.42157,0.018624356,629.1761,617.4581,156.03653,68.58006,106.33292,11.7179985,69.05409
469.28592,0.018990373,640.1038,627.94794,158.66205,68.637924,108.24706,12.15581,69.10117
477.2212,0.01935866,651.1472,638.5419,161.32063,68.686905,110.18235,12.605336,69.13961
485.22437,0.019729143,662.30133,649.2347,164.01035,68.72651,112.13418,13.066637,69.16893
493.3058,0.020101748,673.5694,660.0295,166.7237,68.75714,114.104904,13.539924,69.18951
501.46075,0.0204764,684.955,670.92957,169.46886,68.77921,116.101906,14.0254135,69.201744
509.6951,0.020853037,696.4538,681.9306,172.23552,68.79224,118.125275,14.523177,69.205154
518.01306,0.02123158,708.06476,693.0314,175.01833,68.79637,120.16725,15.033334,69.199905
526.4111,0.02161196,719.7902,704.23413,177.82307,68.79173,122.23291,15.556077,69.18609
534.88544,0.021994099,731.63226,715.5406,180.65523,68.778786,124.318405,16.09159,69.16418
543.4347,0.022377929,743.59045,726.9505,183.51582,68.75733,126.42672,16.640015,69.133965
552.05597,0.02276338,755.6622,738.46075,186.40475,68.7273,128.55783,17.201427,69.095375
560.758,0.02315038,767.8469,750.0709,189.31299,68.68874,130.71324,17.77595,69.04844
569.53784,0.0235371,780.1439,761.7816,192.24374,68.64169,132.88947,18.362326,68.99322
578.3965,0.02392349,792.5549,773.5942,195.19768,68.58636,135.08644,18.96068,68.929886
587.32227,0.0243095,805.08014,785.5091,198.18677,68.52276,137.30324,19.571095,68.858475
596.3256,0.024695083,817.7218,797.528,201.2025,68.45139,139.54364,20.193708,68.77947
605.3899,0.025080191,830.47955,809.65094,204.26111,68.37208,141.79825,20.828587,68.692696
614.5095,0.025464779,843.3506,821.8749,207.36534,68.28479,144.06277,21.475737,68.59813
623.7238,0.025848804,856.3408,834.20544,210.48157,68.190125,146.35602,22.135386,68.49633
633.00665,0.026232224,869.44556,846.638,213.63136,68.08776,148.67172,22.807487,68.38701
642.36945,0.026614986,882.67285,859.1806,216.81116,67.97832,151.01074,23.492329,68.27076
651.81866,0.026997056,896.0207,871.8309,220.0122,67.86198,153.3755,24.18992,68.147766
661.3543,0.02737839,909.48883,884.58856,223.23424,67.7385,155.766,24.90034,68.0178
670.9762,0.02775894,923.0767,897.45306,226.47684,67.60798,158.18318,25.623629,67.88091
680.6698,0.028138673,936.78375,910.42395,229.7541,67.470695,160.61601,26.359852,67.737434
690.4415,0.028517554,950.6049,923.496,233.05449,67.32613,163.06056,27.108927,67.58681
700.28705,0.028895529,964.5457,936.6747,236.3876,67.17503,165.53362,27.871061,67.42978
710.2169,0.029272566,978.6019,949.95575,239.73888,67.016846,168.03645,28.64619,67.2658
720.23615,0.02964863,992.7774,963.34296,243.10683,66.8523,170.56816,29.43449,67.09559
730.3274,0.030023688,1007.0727,976.8366,246.50928,66.681274,173.11713,30.236036,66.91904
740.4784,0.030397696,1021.48706,990.4362,249.95782,66.50396,175.68657,31.050854,66.73631
750.73737,0.030770622,1036.0222,1004.1431,253.40582,66.32056,178.29698,31.87905,66.54763
761.0707,0.031142427,1050.675,1017.9544,256.8838,66.13084,180.93257,32.72057,66.352745
771.4869,0.031513073,1065.4447,1031.8693,260.3825,65.93501,183.58598,33.57544,66.15187
781.9533,0.03188254,1080.3281,1045.8845,263.9312,65.732864,186.25497,34.443604,65.94479
792.4872,0.032250784,1095.3282,1060.003,267.51584,65.52492,188.94165,35.32519,65.73203
803.11304,0.032617778,1110.454,1074.2335,271.1204,65.311485,191.66034,36.22054,65.513885
813.8267,0.032983482,1125.7006,1088.5712,274.7444,65.09268,194.40639,37.129524,65.29048
824.6282,0.033347867,1141.0681,1103.016,278.3877,64.86842,197.17981,38.05219,65.06173
835.508,0.033710916,1156.5563,1117.5677,282.05975,64.6389,199.97607,38.98857,64.82781
846.464,0.034072578,1172.1669,1132.2281,285.76413,64.40433,202.79659,39.938747,64.58894
857.45984,0.034432836,1187.8969,1146.9943,289.53442,64.1645,205.62373,40.90266,64.34491
868.53845,0.034791663,1203.7408,1161.8607,293.32233,63.91925,208.47153,41.88015,64.095566
879.70905,0.03514903,1219.7094,1176.8378,297.12872,63.669357,211.35016,42.8716,63.841663
890.94714,0.035504904,1235.8068,1191.9296,300.98248,63.415165,214.24875,43.877197,63.58355
902.2775,0.03585926,1252.0244,1207.1277,304.85016,63.156193,217.17885,44.89667,63.320747
913.6892,0.036212076,1268.3579,1222.4279,308.7387,62.892426,220.1345,45.929874,63.05324
925.18274,0.036563326,1284.8076,1237.8308,312.648,62.62404,223.11673,46.976837,62.781193
936.73096,0.03691298,1301.3741,1253.3365,316.60553,62.35103,226.11629,48.037598,62.504616
948.36115,0.03726102,1318.0616,1268.9493,320.58813,62.073727,229.14302,49.11232,62.22382
960.07074,0.03760742,1334.8711,1284.6699,324.59927,61.79237,232.19852,50.201057,61.939056
971.8737,0.037952162,1351.8049,1300.501,328.62726,61.50722,235.28642,51.30392,61.650566
983.76733,0.03829522,1368.8604,1316.4396,332.67227,61.218098,238.40408,52.42081,61.35819
995.74884,0.03863657,1386.0365,1332.4849,336.73602,60.925068,241.5511,53.551693,61.06197
1007.81934,0.038976196,1403.3331,1348.6365,340.81717,60.628357,244.72153,54.696583,60.76214
1019.96216,0.039314076,1420.7417,1364.8866,344.9243,60.327686,247.91669,55.855145,60.458427
1032.1594,0.039650183,1438.2627,1381.2354,349.07593,60.02298,251.13188,57.027378,60.150757
1044.4197,0.03998451,1455.9034,1397.69,353.27026,59.715023,254.36505,58.21358,59.839893
1056.7655,0.040317025,1473.6613,1414.2477,357.48224,59.40355,257.62448,59.413643,59.52558
1069.198,0.04064773,1491.5365,1430.9088,361.7109,59.0887,260.91357,60.627567,59.207954
1081.7051,0.04097658,1509.5292,1447.6737,365.96872,58.77058,264.23486,61.855343,58.887123
1094.2441,0.041303575,1527.6316,1464.535,370.29074,58.44924,267.56607,63.096645,58.563133
1106.8527,0.041628692,1545.8573,1481.5052,374.65256,58.124935,270.9203,64.35201,58.23624
1119.5586,0.041951932,1564.2052,1498.5837,379.02527,57.798,274.30853,65.62143,57.90677
1132.3413,0.042273257,1582.6724,1515.7677,383.4265,57.468273,277.71793,66.90472,57.57457
1145.1766,0.04259267,1601.248,1533.0465,387.86993,57.13549,281.14102,68.20143,57.23937
1158.0903,0.042910144,1619.9376,1550.4259,392.3355,56.800053,284.59845,69.51176,56.90157
1171.087,0.043225672,1638.7495,1567.9136,396.82654,56.462254,288.07767,70.836044,56.561462
1184.1672,0.043539234,1657.6752,1585.5013,401.33408,56.122005,291.58505,72.17391,56.21896
1197.3322,0.04385083,1676.715,1603.1897,405.85748,55.779312,295.12143,73.525345,55.874065
1210.5823,0.044160437,1695.8687,1620.9784,410.39615,55.434303,298.687,74.890305,55.526897
1223.8955,0.04446804,1715.1346,1638.8658,414.97037,55.087093,302.27258,76.26868,55.177586
1237.2686,0.04477365,1734.5165,1656.8561,419.58743,54.737713,305.87537,77.66063,54.826145
1250.7324,0.04507723,1754.0155,1674.9492,424.21683,54.38662,309.50668,79.06616,54.47304
1264.2778,0.045378786,1773.627,1693.1418,428.86407,54.033432,313.16345,80.48504,54.11789
1277.9211,0.045678303,1793.3517,1711.4344,433.5132,53.678387,316.86276,81.91726,53.760925
1291.6013,0.04597577,1813.1859,1729.8234,438.22202,53.321598,320.575,83.36262,53.40226
1305.3158,0.04627118,1833.128,1748.3071,442.9913,52.963085,324.29987,84.821,53.041916
1319.1149,0.046564527,1853.1847,1766.8921,447.77728,52.602947,328.05493,86.29267,52.67998
1332.9921,0.046855807,1873.3512,1785.5739,452.58185,52.241264,331.83752,87.77738,52.316547
1346.9545,0.047145,1893.6208,1804.3461,457.39154,51.87813,335.65057,89.27476,51.951702
1361.0038,0.047432113,1914.0018,1823.2167,462.21283,51.513577,339.49448,90.78516,51.585472
1375.1311,0.047717128,1934.4954,1842.1869,467.0557,51.147842,343.3683,92.30856,51.218105
1389.3099,0.04800004,1955.1001,1861.2552,471.9454,50.781067,347.26913,93.84489,50.84973
1403.5869,0.048280865,1975.8248,1880.4304,476.8435,50.413372,351.20557,95.39454,50.480473
1417.9291,0.048559565,1996.6644,1899.7074,481.77835,50.0449,355.17435,96.95716,50.110477
1432.3063,0.048836146,2017.605,1919.073,486.7667,49.675297,359.1551,98.53204,49.739384
1446.7465,0.049110617,2038.6553,1938.5356,491.78928,49.304955,363.15842,100.11962,49.367588
1461.2805,0.04938298,2059.8198,1958.0997,496.81912,48.9339,367.19666,101.72005,48.995106
1475.8782,0.049653202,2081.097,1977.7638,501.88565,48.562344,371.2609,103.33313,48.622158
1490.5283,0.049921304,2102.4792,1997.5209,506.99243,48.19002,375.3495,104.9585,48.248478
1505.2493,0.050187275,2123.9614,2017.3655,512.1162,47.817074,379.46457,106.59583,47.874203
1520.0509,0.05045111,2145.5466,2037.3014,517.2507,47.44357,383.6088,108.24522,47.499393
1534.9186,0.050712813,2167.2327,2057.3264,522.4078,47.069572,387.76572,109.90647,47.124126
1549.8505,0.050972372,2189.0195,2077.44,527.58954,46.69514,391.9328,111.57951,46.748455
1564.8638,0.0512298,2210.917,2097.6523,532.78845,46.320583,396.13187,113.26484,46.37269
1579.9507,0.05148509,2232.9219,2117.9597,538.0089,45.945885,400.35904,114.96219,45.996807
1595.1095,0.05173824,2255.0295,2138.3582,543.2487,45.57106,404.61713,116.671265,45.620827
1610.2922,0.051989254,2277.2412,2158.8494,548.557,45.19619,408.89325,118.392075,45.244816
1625.557,0.052238137,2299.56,2179.4353,553.87836,44.821404,413.1913,120.124725,44.868927
1640.8984,0.052484874,2321.9832,2200.1143,559.21576,44.446823,417.51886,121.868996,44.493267
1656.3334,0.052729476,2344.5166,2220.891,564.55786,44.072445,421.8821,123.62513,44.117832
1671.8447,0.05297195,2367.1553,2241.7625,569.9177,43.698418,426.268,125.39283,43.742775
1687.39,0.053212292,2389.8906,2262.719,575.3289,43.324493,430.6609,127.17155,43.36784
1702.9661,0.053450506,2412.7283,2283.7666,580.80054,42.950924,435.0613,128.96155,42.993282
1718.6256,0.053686593,2435.67,2304.9072,586.2815,42.577892,439.49417,130.76282,42.61929
1734.38,0.05392054,2458.7175,2326.142,591.76215,42.205315,443.96674,132.57538,42.245773
1750.2279,0.054152388,2481.873,2347.4739,597.24585,41.83348,448.47607,134.39935,41.873016
1766.1493,0.05438211,2505.1318,2368.8975,602.7483,41.462173,453.02316,136.23436,41.500813
1782.135,0.054609705,2528.4888,2390.4087,608.27374,41.091484,457.59366,138.08003,41.129246
1798.1809,0.054835204,2551.9363,2412.0005,613.8194,40.72134,462.18396,139.93596,40.75824
1814.2937,0.055058595,2575.4717,2433.6697,619.37604,40.351753,466.80014,141.80183,40.387814
1830.4761,0.05527988,2599.096,2455.4185,624.9423,39.982834,471.44394,143.67772,40.018074
1846.6825,0.055499062,2622.8086,2477.245,630.5626,39.614628,476.09692,145.56343,39.64907
1862.8862,0.055716164,2646.6125,2499.1533,636.2671,39.24719,480.75104,147.4591,39.280846
1879.1464,0.055931162,2670.5044,2521.1401,641.9937,38.880642,485.42816,149.36441,38.913536
1895.4681,0.05614409,2694.4907,2543.211,647.74274,38.51503,490.13165,151.27972,38.547176
1911.8485,0.05635492,2718.5825,2565.377,653.52856,38.150684,494.86618,153.2055,38.1821
1928.3126,0.056563698,2742.7708,2587.6296,659.3171,37.7874,499.6347,155.14127,37.8181
1944.8566,0.056770418,2767.0518,2609.9648,665.1084,37.425224,504.43573,157.08669,37.455223
1961.4865,0.056975063,2791.428,2632.386,670.89954,37.064266,509.26965,159.04178,37.09358
1978.171,0.057177655,2815.8923,2654.886,676.71484,36.70447,514.1211,161.0061,36.733124
1994.925,0.057378218,2840.4475,2677.4673,682.5425,36.345867,518.98474,162.9798,36.373867
2011.7389,0.05757672,2865.0813,2700.1191,688.3802,35.98841,523.87244,164.96198,36.015778
2028.6143,0.057773214,2889.7937,2722.8408,694.2266,35.632164,528.78516,166.95265,35.65891
2045.5051,0.05796767,2914.588,2745.636,700.13086,35.277206,533.71106,168.95187,35.303345
2062.4507,0.058160115,2939.485,2768.5244,706.07385,34.923786,538.6659,170.96078,34.949326
2079.4749,0.058350556,2964.4658,2791.4878,712.01294,34.571785,543.6596,172.97824,34.59674
2096.5796,0.05853899,2989.5278,2814.5242,717.94446,34.221195,548.69226,175.00394,34.24559
2113.6914,0.058725446,3014.6748,2837.6365,723.945,33.872135,553.7434,177.03812,33.895977
2130.853,0.058909908,3039.91,2860.8293,729.97644,33.52466,558.8216,179.08083,33.547955
2148.0632,0.059092395,3065.2336,2884.1016,736.03845,33.178753,563.9268,181.132,33.201523
2165.343,0.059272904,3090.6384,2907.4473,742.1043,32.834446,569.0617,183.19112,32.85669
2182.6907,0.059451457,3116.1223,2930.8645,748.1739,32.491753,574.2254,185.25801,32.513496
2200.0864,0.05962806,3141.687,2954.3545,754.268,32.150677,579.41077,187.33272,32.171925
2217.4905,0.05980271,3167.328,2977.913,760.4224,31.811192,584.60114,189.4148,31.831959
2234.9277,0.059975445,3193.0537,3001.5488,766.6211,31.473501,589.80896,191.50479,31.493792
2252.4487,0.060146254,3218.8647,3025.2622,772.81335,31.137644,595.0532,193.60268,31.157475
2270.0518,0.06031516,3244.7612,3049.0532,779.00134,30.803638,600.3327,195.70828,30.823017
2287.7065,0.06048216,3270.739,3072.9175,785.211,30.471415,605.6296,197.82137,30.490353
2305.45,0.060647264,3296.795,3096.8533,791.4034,30.141108,610.9663,199.9416,30.159616
2323.2288,0.06081048,3322.923,3120.8545,797.6257,29.812561,616.3226,202.06856,29.83065
2341.0286,0.060971837,3349.119,3144.917,803.88855,29.485785,621.67786,204.20195,29.503462
2358.893,0.061131325,3375.3884,3169.0469,810.1537,29.160923,627.0613,206.34196,29.178198
2376.8174,0.061288953,3401.7268,3193.2385,816.4214,28.837889,632.47156,208.48828,28.85477
2394.7908,0.061444733,3428.1355,3217.4944,822.7036,28.516796,637.9002,210.64087,28.533295
2412.8274,0.061598685,3454.6143,3241.8145,828.98706,28.197615,643.355,212.7997,28.213737
2430.919,0.06175081,3481.156,3266.192,835.27264,27.880367,648.83484,214.9642,27.896124
2449.05,0.061901134,3507.7605,3290.6262,841.5759,27.565083,654.3355,217.13435,27.58048
