con,Omega,ygross,ynet,inv,Eind,scc,Dam,Emissions
77.164505,0.0028556,105.17594,104.8756,27.711107,36.845238,12.0846195,0.3003404,39.445236
79.70737,0.002278755,108.71545,108.46771,28.76035,37.510365,12.393617,0.24773586,40.05125
82.34946,0.002125019,112.37151,112.13272,29.783262,38.18608,12.760639,0.2387916,40.66919
85.08458,0.0021188653,116.14161,115.89551,30.810928,38.870342,13.158867,0.2460884,41.296993
87.9066,0.0021688896,120.019455,119.75914,31.852535,39.560127,13.575777,0.26030895,41.931602
90.81416,0.0022416017,124.000916,123.72295,32.908794,40.253094,14.009395,0.2779607,42.57065
93.798294,0.0023241937,128.0845,127.78681,33.98852,40.94803,14.454981,0.29769316,43.212883
96.868835,0.0024117047,132.26562,131.94664,35.0778,41.642735,14.915093,0.31898567,43.85609
100.02454,0.0025022246,136.54482,136.20316,36.17861,42.336613,15.389768,0.3416658,44.49964
103.25367,0.0025950351,140.92107,140.55539,37.301716,43.028713,15.875832,0.36569512,45.142563
106.55982,0.0026898843,145.39267,145.00157,38.441757,43.718075,16.376425,0.39108947,45.783863
109.93355,0.0027867008,149.95825,149.54036,39.606827,44.40348,16.888353,0.4178888,46.4223
113.37642,0.0028854783,154.61722,154.17107,40.79466,45.08441,17.411444,0.44614458,47.057327
116.895905,0.002986234,159.36865,158.89275,41.996838,45.760117,17.94861,0.47591212,47.68817
120.49533,0.0030889895,164.21268,163.70543,43.210083,46.430157,18.502398,0.50725126,48.314373
124.15886,0.0031937677,169.15034,168.61009,44.451244,47.09423,19.065493,0.5402269,48.935604
127.898,0.0033005862,174.1772,173.60231,45.704315,47.75096,19.646708,0.5748869,49.55047
131.70607,0.0034094623,179.29335,178.68207,46.976006,48.39974,20.24019,0.611294,50.15832
135.57997,0.0035204047,184.50012,183.8506,48.270638,49.040848,20.845358,0.6495151,50.759453
139.52017,0.0036334186,189.79665,189.10703,49.586853,49.67348,21.465176,0.6896107,51.353004
143.53001,0.0037485093,195.18297,194.45134,50.92132,50.29749,22.094934,0.7316452,51.938828
147.60321,0.003865677,200.65979,199.88412,52.2809,50.912777,22.736485,0.77568597,52.516792
151.74413,0.0039849197,206.22723,205.40541,53.661297,51.518993,23.393526,0.8217989,53.08654
155.95654,0.0041062315,211.88606,211.016,55.05944,52.11616,24.063492,0.8700532,53.648064
160.2374,0.004229607,217.63638,216.71587,56.478466,52.70385,24.745848,0.9205164,54.20092
164.58571,0.0043550367,223.47841,222.50517,57.919456,53.28215,25.438631,0.9732567,54.745186
168.99625,0.004482513,229.41226,228.38393,59.387672,53.850555,26.14299,1.0283434,55.28032
173.47699,0.0046120198,235.43762,234.35176,60.874775,54.409073,26.862148,1.085843,55.806328
178.02975,0.004743547,241.55472,240.40889,62.37913,54.957253,27.596024,1.1458262,56.322742
182.65446,0.004877078,247.76453,246.55617,63.90171,55.495327,28.342794,1.2083669,56.829765
187.3416,0.005012597,254.06708,252.79356,65.45196,56.02299,29.10071,1.2735358,57.327087
192.09303,0.005150083,260.46326,259.12186,67.02883,56.54038,29.87138,1.3414074,57.814823
196.91422,0.005289519,266.95447,265.54242,68.628204,57.047512,30.65482,1.4120607,58.29298
201.8023,0.0054308865,273.54083,272.05527,70.252975,57.54424,31.451164,1.4855691,58.761395
206.76147,0.005574163,280.22192,278.65994,71.89846,58.03041,32.260525,1.5620027,59.219887
211.78836,0.005719328,286.99893,285.35748,73.56912,58.50602,33.08251,1.6414409,59.668446
216.88602,0.00586636,293.87228,292.14832,75.2623,58.971024,33.917572,1.7239606,60.10702
222.05977,0.0060152337,300.84256,299.0329,76.97314,59.425484,34.76783,1.8096383,60.53566
227.30992,0.006165929,307.90964,306.01108,78.70116,59.86914,35.631256,1.8985491,60.95407
232.6176,0.0063184192,315.07452,313.08374,80.466156,60.30208,36.504692,1.9907727,61.362328
237.99628,0.006472681,322.33792,320.25153,82.25526,60.724304,37.391563,2.0863907,61.760456
243.44669,0.0066286875,329.70023,327.51474,84.06807,61.135887,38.29888,2.1854799,62.148476
248.96848,0.006786411,337.16028,334.8722,85.9037,61.536407,39.218082,2.2881083,62.52597
254.5658,0.0069458303,344.72058,342.3262,87.76041,61.926342,40.146637,2.3943708,62.893406
260.24097,0.0071069147,352.38278,349.87842,89.63745,62.305664,41.088703,2.5043542,63.25074
265.98734,0.007269638,360.14685,357.5287,91.541336,62.674477,42.04664,2.6181371,63.598064
271.80576,0.0074339737,368.01227,365.27646,93.47072,63.032516,43.02291,2.7357934,63.935104
277.6959,0.007599894,375.97845,373.12106,95.425156,63.37958,44.012016,2.8573964,64.26164
283.6541,0.0077673704,384.0453,381.06226,97.408134,63.715733,45.01181,2.983022,64.57774
289.68533,0.007936374,392.21408,389.10135,99.416,64.04089,46.024513,3.112758,64.8833
295.79352,0.008106879,400.48636,397.23965,101.446175,64.35549,47.052177,3.2466946,65.17874
301.9745,0.008278853,408.865,405.48004,103.505554,64.6598,48.09611,3.3849332,65.46433
308.23,0.00845227,417.34805,413.82047,105.59048,64.95358,49.154564,3.5275385,65.73982
314.55923,0.008627099,425.9364,422.26178,107.70254,65.236664,50.227676,3.6745954,66.00503
320.96472,0.008803313,434.6294,430.8032,109.838455,65.5092,51.311275,3.8261783,66.2601
327.449,0.0089808805,443.42798,439.44562,111.99661,65.770996,52.41101,3.9823735,66.50482
334.0118,0.009159775,452.3324,448.18912,114.177315,66.02236,53.527218,4.1432633,66.739494
340.6496,0.009339966,461.34305,457.0341,116.38448,66.26315,54.654926,4.3089285,66.96399
347.3695,0.009521424,470.46106,465.9816,118.612076,66.49356,55.798195,4.4794593,67.17846
354.16803,0.0097041195,479.68793,475.03296,120.864944,66.71387,56.95739,4.654949,67.383194
361.04706,0.009888024,489.02136,484.1859,123.13883,66.92352,58.131344,4.835455,67.57762
367.99432,0.01007311,498.462,493.44095,125.4466,67.1227,59.320515,5.021063,67.76193
375.02185,0.010259343,508.01086,502.799,127.7772,67.311714,60.52862,5.211858,67.93641
382.1322,0.010446699,517.6676,512.2597,130.12752,67.49036,61.75783,5.4079185,68.10085
389.32034,0.010635144,527.4297,521.8204,132.50005,67.65821,63.002964,5.6092906,68.254814
396.5831,0.010824651,537.2985,531.4824,134.89934,67.81575,64.26285,5.816069,68.398796
403.91873,0.011015185,547.275,541.24677,137.32803,67.96298,65.53821,6.028336,68.53277
411.3344,0.01120672,557.36285,551.1166,139.78221,68.10038,66.830124,6.2462096,68.65721
418.81638,0.011399227,567.5635,561.0937,142.27736,68.228165,68.1414,6.4697857,68.77233
426.37906,0.011592675,577.8782,571.179,144.79996,68.34647,69.46957,6.699154,68.878265
434.01624,0.011787037,588.3064,581.37195,147.35576,68.45528,70.81013,6.9343896,68.974976
441.7323,0.0119822845,598.84924,591.67365,149.94133,68.554695,72.170906,7.175582,69.062584
449.52682,0.01217839,609.50336,602.08057,152.55373,68.6444,73.54815,7.422769,69.14074
457.40005,0.012375326,620.2722,612.5961,155.19604,68.72483,74.94053,7.676071,69.20988
465.36295,0.012573068,631.15936,623.2237,157.86078,68.79624,76.35411,7.935609,69.27026
473.39728,0.012771583,642.16345,633.962,160.56473,68.85878,77.7847,8.201444,69.32203
481.51556,0.012970853,653.2823,644.8086,163.29306,68.91212,79.23431,8.473627,69.36483
489.7147,0.013170842,664.5164,655.76416,166.04945,68.95637,80.70469,8.75224,69.39879
497.99704,0.013371532,675.86536,666.828,168.83092,68.99151,82.19663,9.037355,69.423874
506.36212,0.013572889,687.3297,678.0007,171.63852,69.01767,83.7072,9.32905,69.4402
514.8013,0.013774891,698.91266,689.2852,174.48393,69.035095,85.233284,9.627446,69.44802
523.33026,0.013977513,710.6127,700.6801,177.34976,69.04394,86.78012,9.932598,69.44747
531.94855,0.0141807245,722.43054,712.18604,180.23747,69.044075,88.3478,10.244588,69.43844
540.65967,0.014384499,734.36597,723.8025,183.14282,69.03578,89.938805,10.563487,69.42117
549.4536,0.014588816,746.41595,735.5266,186.073,69.0186,91.54787,10.889325,69.395226
558.3315,0.014793646,758.57886,747.35675,189.02527,68.99258,93.17594,11.222147,69.36065
567.28345,0.014998961,770.8551,759.293,192.0096,68.957855,94.81519,11.562027,69.31755
576.3237,0.015189731,783.2477,771.3504,195.02666,68.91478,96.464424,11.897322,69.2663
585.45215,0.0153748365,795.7615,783.5268,198.07462,68.86385,98.13,12.234703,69.20738
594.664,0.015557728,808.394,795.8172,201.15321,68.80481,99.81553,12.576774,69.140526
603.94403,0.015739737,821.1453,808.2207,204.27667,68.73798,101.51807,12.924611,69.06606
613.30756,0.015921373,834.01654,820.7379,207.43039,68.66328,103.23716,13.278689,68.9839
622.7566,0.016102811,847.00757,833.36835,210.61172,68.580894,104.97744,13.639203,68.894226
632.29065,0.016284121,860.1186,846.1123,213.82167,68.49095,106.74143,14.006276,68.797165
641.9115,0.016465303,873.3502,858.9703,217.05879,68.393555,108.52396,14.379975,68.692795
651.60175,0.016646352,886.7053,871.945,220.34328,68.28888,110.3226,14.760409,68.581314
661.37134,0.016827252,900.1816,885.034,223.6627,68.1771,112.13468,15.147583,68.4629
671.2317,0.017007982,913.782,898.24036,227.00865,68.05826,113.96799,15.541588,68.33754
681.1785,0.017188527,927.5094,911.5668,230.38826,67.93264,115.82085,15.94252,68.205574
691.199,0.017368864,941.36084,925.01044,233.8114,67.80035,117.69161,16.350368,68.06708
701.31476,0.017548975,955.3354,938.5702,237.25548,67.66116,119.58647,16.765156,67.92184
711.5265,0.017728841,969.4379,952.2509,240.72449,67.51575,121.5064,17.18701,67.770485
721.82385,0.017908443,983.6632,966.0473,244.22345,67.363464,123.44472,17.615877,67.61241
732.2046,0.018087763,998.0072,979.95557,247.75096,67.20447,125.40456,18.051718,67.44776
742.6695,0.01826678,1012.4718,993.9771,251.30768,67.038765,127.38658,18.494598,67.27653
753.22296,0.018445484,1027.0598,1008.1152,254.89217,66.866776,129.39027,18.944616,67.09913
763.86884,0.018623844,1041.7721,1022.37036,258.5015,66.68864,131.4206,19.4018,66.91571
774.60724,0.018801851,1056.6072,1036.7411,262.13385,66.50423,133.47739,19.86617,66.72613
785.4257,0.018979484,1071.5665,1051.2288,265.80304,66.313866,135.5513,20.33778,66.53072
796.3186,0.019156728,1086.6495,1065.8329,269.51428,66.11749,137.64116,20.816648,66.32943
807.296,0.019333556,1101.8512,1080.5486,273.25253,65.915146,139.75221,21.302704,66.12226
818.3614,0.019509962,1117.1735,1095.3774,277.016,65.70668,141.88553,21.796011,65.90908
829.5156,0.019685928,1132.6165,1110.3198,280.8043,65.49259,144.0348,22.296606,65.69039
840.76086,0.019861428,1148.1841,1125.3795,284.61865,65.272964,146.20723,22.804575,65.466255
852.09454,0.020036455,1163.8757,1140.5558,288.46124,65.04798,148.4179,23.319944,65.23689
863.5225,0.020210993,1179.6854,1155.8428,292.32028,64.81742,150.65004,23.842613,65.00204
875.04425,0.020385025,1195.6133,1171.2407,296.19638,64.58129,152.90395,24.372606,64.76171
886.64606,0.020558529,1211.6606,1186.7507,300.10464,64.33979,155.18346,24.90996,64.516106
898.32745,0.020731501,1227.8298,1202.3751,304.0476,64.09326,157.48862,25.454758,64.26557
910.0859,0.020903919,1244.1178,1218.1108,308.02496,63.841644,159.81537,26.006939,64.010025
921.9096,0.021075767,1260.5255,1233.9589,312.0493,63.58501,162.15991,26.566542,63.749577
933.81885,0.02124703,1277.0519,1249.9183,316.09946,63.323532,164.52751,27.133558,63.48435
945.7985,0.021417698,1293.6986,1265.9906,320.19208,63.057404,166.90842,27.708048,63.21456
957.8553,0.021587756,1310.4733,1282.1831,324.32776,62.786983,169.31026,28.290176,62.940563
970.00543,0.021757193,1327.3751,1298.4951,328.4897,62.512337,171.73866,28.879953,62.662434
982.24164,0.021925991,1344.4044,1314.927,332.6853,62.233692,174.19211,29.4774,62.38037
994.5683,0.022094144,1361.5576,1331.4751,336.9068,61.95097,176.67183,30.082449,62.094315
1006.98724,0.022261634,1378.8319,1348.137,341.14966,61.664047,179.17387,30.695053,61.80413
1019.49585,0.02242845,1396.2262,1364.9111,345.4152,61.37298,181.70079,31.315191,61.50988
1032.0922,0.022594588,1413.7413,1381.7983,349.7062,61.07801,184.25237,31.9429,61.211803
1044.7764,0.022760024,1431.3768,1398.7987,354.02228,60.779278,186.82877,32.57817,60.910023
1057.549,0.022924762,1449.133,1415.912,358.3631,60.476635,189.43018,33.221027,60.604412
1070.4093,0.02308878,1467.0098,1433.1383,362.729,60.17055,192.0567,33.871464,60.295414
1083.358,0.023252072,1485.0082,1450.4786,367.12064,59.86094,194.70317,34.52952,59.98297
1096.384,0.023414621,1503.1233,1467.9283,371.54434,59.54773,197.36867,35.195065,59.666977
1109.4833,0.023576418,1521.3546,1485.4865,376.0032,59.23098,200.05368,35.86809,59.34752
1122.6343,0.023737455,1539.6964,1503.148,380.5136,58.910847,202.76239,36.548473,59.02474
1135.8708,0.023897724,1558.1703,1520.9337,385.0628,58.58792,205.49377,37.23673,58.699226
1149.1881,0.024057213,1576.772,1538.8392,389.6511,58.26235,208.24738,37.932743,58.371117
1162.5918,0.024215916,1595.492,1556.8555,394.26373,57.933758,211.02647,38.636295,58.040054
1176.0863,0.024373814,1614.3301,1574.9827,398.89648,57.60228,213.83244,39.34738,57.70616
1189.678,0.024530912,1633.2966,1593.2306,403.55252,57.26846,216.66711,40.066254,57.369976
1203.3582,0.024687191,1652.3912,1611.5984,408.24026,56.932278,219.53445,40.7929,57.03149
1217.0905,0.02484265,1671.609,1630.0818,412.9913,56.59374,222.42354,41.5272,56.6907
1230.9054,0.02499728,1690.9374,1648.6683,417.76303,56.25245,225.33246,42.268837,56.347202
1244.8118,0.02515107,1710.3766,1667.3586,422.5469,55.90853,228.2621,43.017803,56.001133
1258.7933,0.025304016,1729.9276,1686.1534,427.36008,55.56222,231.2145,43.774113,55.652706
1272.8513,0.025456112,1749.596,1705.0579,432.20663,55.213593,234.18831,44.53791,55.302025
1286.9993,0.025607342,1769.3851,1724.076,437.07672,54.863186,237.18878,45.309246,54.94961
1301.23,0.025757704,1789.2952,1743.207,441.97708,54.510754,240.21054,46.088135,54.595215
1315.5125,0.02590719,1809.3245,1762.45,446.93735,54.156483,243.24669,46.874516,54.239025
1329.8588,0.026055798,1829.474,1781.8054,451.94672,53.800594,246.31018,47.668404,53.881256
1344.2926,0.02620351,1849.744,1801.2743,456.98163,53.44316,249.40094,48.469784,53.521988
1358.8289,0.026350336,1870.1356,1820.8568,462.02814,53.084103,252.52092,49.2787,53.161137
1373.4515,0.026496263,1890.6442,1840.5491,467.09756,52.723503,255.66808,50.095005,52.79879
1388.1597,0.026641285,1911.2676,1860.349,472.1893,52.361588,258.8425,50.91863,52.435158
1402.9532,0.026785394,1932.0057,1880.2562,477.30298,51.998135,262.0442,51.749535,52.07003
1417.8324,0.026928589,1952.8588,1900.2709,482.43854,51.633366,265.27338,52.58773,51.70363
1432.7955,0.027070869,1973.8245,1920.3914,487.5958,51.267403,268.52988,53.43314,51.33607
1447.8442,0.027212217,1994.9045,1940.6187,492.7744,50.900196,271.81387,54.285774,50.967297
1462.9768,0.027352639,2016.0967,1960.951,497.97437,50.531956,275.1255,55.14557,50.59753
1478.1859,0.027492132,2037.4006,1981.3882,503.20227,50.16268,278.4666,56.012486,50.226772
1493.4767,0.027630676,2058.812,2001.9254,508.4488,49.79245,281.83432,56.88636,49.85508
1508.8448,0.02776828,2080.3293,2022.5621,513.71735,49.42113,285.22623,57.767166,49.482338
1524.2948,0.027904943,2101.956,2043.3008,519.00616,49.049084,288.64545,58.654957,49.108894
1539.8344,0.028040651,2123.6914,2064.1416,524.3074,48.676212,292.10352,59.54969,48.734665
1555.4517,0.028175399,2145.5288,2085.078,529.62616,48.302628,295.57977,60.451134,48.359756
1571.1183,0.02830919,2167.4673,2106.1082,534.9898,47.928295,299.0777,61.35924,47.98412
1586.8568,0.028442025,2189.507,2127.2334,540.3764,47.553345,302.60342,62.27402,47.6079
1602.6678,0.028573887,2211.6482,2148.4531,545.7852,47.177845,306.15726,63.19539,47.231163
1618.4933,0.02870478,2233.8914,2169.768,551.2748,46.801914,309.71814,64.12336,46.854015
1634.3787,0.028834702,2256.2373,2191.1794,556.8007,46.42564,313.29584,65.05793,46.47656
1650.3175,0.02896365,2278.688,2212.689,562.3715,46.049168,316.89264,65.99912,46.098934
1666.362,0.02909162,2301.2566,2234.3093,567.94727,45.672817,320.52405,66.94728,45.721447
1682.4911,0.029218609,2323.936,2256.0337,573.5426,45.29652,324.18933,67.902176,45.344048
1698.6979,0.029344616,2346.724,2277.8604,579.1625,44.92041,327.89584,68.86372,44.966854
1714.9874,0.029469639,2369.62,2299.7883,584.80096,44.544346,331.63202,69.831856,44.589737
1731.3297,0.029593686,2392.6206,2321.8142,590.4843,44.168518,335.39178,70.806465,44.21287
1747.7583,0.02971674,2415.7214,2343.9338,596.1756,43.792763,339.18002,71.78736,43.83611
1764.2758,0.029838812,2438.9243,2366.15,601.8741,43.417263,342.99673,72.774605,43.459625
1780.8628,0.029959898,2462.2212,2388.4531,607.59033,43.042023,346.84024,73.76789,43.08342
1797.5247,0.030079985,2485.6128,2410.8457,613.3211,42.66699,350.7098,74.7672,42.707447
1814.2643,0.030199086,2509.1035,2433.3308,619.0665,42.292465,354.60522,75.77264,42.332
1831.0433,0.030317206,2532.6885,2455.9045,624.8612,41.918262,358.52823,76.78404,41.956898
1847.8785,0.030434329,2556.3772,2478.5757,630.69714,41.544712,362.4782,77.80163,41.582474
1864.7897,0.030550456,2580.1646,2501.3394,636.5497,41.17178,366.457,78.82521,41.20868
1881.7754,0.030665599,2604.0488,2524.194,642.4188,40.79949,370.46472,79.85471,40.835552
1898.8375,0.03077974,2628.0298,2547.14,648.30225,40.427933,374.50064,80.890076,40.463173
1915.9653,0.03089289,2652.1062,2570.1748,654.2094,40.05714,378.5613,81.93122,40.091576
1933.1575,0.031005051,2676.283,2593.3047,660.1472,39.687176,382.64868,82.978294,39.720833
1950.4281,0.031116223,2700.559,2616.5278,666.09973,39.31822,386.76627,84.0312,39.35111
1967.7755,0.031226402,2724.9314,2639.8416,672.06604,38.95015,390.91458,85.089806,38.982296
1985.1924,0.031335596,2749.3994,2663.2454,678.0529,38.583145,395.09882,86.15407,38.614555
2002.657,0.031443797,2773.9548,2686.7314,684.07446,38.21702,399.3109,87.22367,38.247723
2020.0728,0.031551007,2798.5947,2710.2961,690.2236,37.85185,403.5047,88.298485,37.88185
2037.5781,0.031657234,2823.344,2733.965,696.3867,37.488045,407.73203,89.379265,37.51736
2055.141,0.03176247,2848.193,2757.7275,702.58636,37.125507,411.9907,90.46565,37.154163
2072.768,0.03186672,2873.1382,2781.5806,708.8125,36.76417,416.27,91.5575,36.792168
2090.4717,0.031969994,2898.1821,2805.527,715.05536,36.404198,420.57697,92.65486,36.431564
2108.2566,0.03207228,2923.3237,2829.5662,721.3098,36.045605,424.91602,93.75766,36.07235
2126.1196,0.032173585,2948.563,2853.6973,727.5778,35.688435,429.28592,94.86584,35.714573
2144.0562,0.03227392,2973.895,2877.9158,733.8597,35.332607,433.6859,95.97924,35.358147
2162.064,0.032373276,2999.3167,2902.2192,740.1552,34.978214,438.11536,97.0977,35.00317
2180.1404,0.032471653,3024.825,2926.6038,746.4635,34.625244,442.57355,98.22107,34.649635
2198.2903,0.03256907,3050.4216,2951.0723,752.7818,34.273777,447.0573,99.34939,34.297615
2216.5122,0.032665506,3076.1006,2975.6184,759.10596,33.92377,451.56424,100.482376,33.947067
2234.7988,0.03276098,3101.8618,3000.2417,765.44293,33.57523,456.09875,101.62003,33.597992
2253.103,0.032855485,3127.7048,3024.9426,771.83984,33.228237,460.6491,102.76226,33.25048
2271.4548,0.032949034,3153.6335,3049.7244,778.2696,32.882885,465.2249,103.90917,32.904625
2289.88,0.033041622,3179.652,3074.591,784.7113,32.539192,469.83084,105.06087,32.56044
2308.373,0.03313325,3205.7544,3099.5374,791.1643,32.197136,474.46573,106.217064,32.2179
2326.934,0.033223927,3231.9412,3124.5635,797.6294,31.856817,479.12955,107.37778,31.87711
2345.5305,0.033313647,3258.2063,3149.6633,804.13275,31.518213,483.81302,108.542725,31.538044
2364.1533,0.033402417,3284.5505,3174.8386,810.6852,31.181372,488.51318,109.71193,31.20075
2382.836,0.033490248,3310.9727,3200.0874,817.2515,30.846247,493.2403,110.88529,30.865185
2401.5789,0.03357712,3337.4707,3225.4077,823.82904,30.512987,497.99466,112.06265,30.531496
2420.375,0.033663064,3364.0432,3250.7993,830.4242,30.181484,502.77048,113.244,30.19957
2439.2217,0.03374807,3390.6885,3276.2593,837.0375,29.85177,507.56665,114.4292,29.869448
2458.1265,0.033832144,3417.408,3301.7898,843.6631,29.52394,512.38934,115.61824,29.541216
2477.086,0.03391529,3444.1973,3327.3865,850.30023,29.197933,517.238,116.81094,29.214815
2496.1018,0.033997506,3471.0574,3353.0503,856.9485,28.873842,522.1126,118.00729,28.89034
2515.174,0.0340788,3497.9902,3378.783,863.6091,28.551662,527.0136,119.2073,28.567787
2534.2996,0.03415917,3524.9897,3404.579,870.2795,28.231432,531.94006,120.41071,28.24719
2553.4773,0.034238618,3552.055,3430.4373,876.9601,27.91316,536.892,121.617455,27.928558
