con,Omega,ygross,ynet,inv,Eind,scc,Dam,Emissions
77.01115,0.0028556,105.17594,104.8756,27.81545,31.595772,25.286104,0.3003404,34.195774
79.50882,0.003156683,108.654686,108.31169,28.748045,31.937908,25.967545,0.3429884,34.47879
82.07815,0.003429327,112.233925,111.849045,29.710306,32.297844,26.686712,0.38488686,34.780956
84.73866,0.0036791028,115.90973,115.48329,30.678251,32.666306,27.44578,0.42644382,35.092957
87.474,0.0039109713,119.68102,119.21296,31.66673,33.04116,28.238955,0.46806905,35.412632
90.29024,0.0041291444,123.54625,123.03611,32.667694,33.41909,29.068142,0.5101403,35.736645
93.18648,0.004337105,127.5034,126.95039,33.679703,33.798702,29.934313,0.5529956,36.063557
96.14552,0.004537675,131.5496,130.95267,34.71686,34.17981,30.829111,0.5969294,36.39317
99.18298,0.004733114,135.68318,135.04099,35.761307,34.552013,31.760473,0.642204,36.71505
102.281525,0.0049252193,139.903,139.21394,36.829067,34.916782,32.717525,0.68905294,37.030636
105.44938,0.0051153987,144.20863,143.47096,37.911118,35.268578,33.704952,0.73768467,37.334366
108.6871,0.005304745,148.59871,147.81041,39.005352,35.60906,34.722267,0.78827816,37.627876
111.982605,0.005494097,153.0727,152.23169,40.123436,35.941845,35.76343,0.8409962,37.914757
115.34283,0.0056840936,157.6283,156.73235,41.255726,36.261513,36.832687,0.89597404,38.18957
118.76213,0.0058752284,162.26678,161.31343,42.40907,36.570656,37.930466,0.95335436,38.454872
122.24107,0.0060678683,166.98743,165.97415,43.58204,36.86773,39.054043,1.0132576,38.7091
125.7938,0.0062622847,171.78853,170.71275,44.758644,37.150574,40.209045,1.0757887,38.95008
129.4051,0.0064586764,176.66867,175.52763,45.95252,37.41878,41.38805,1.1410459,39.17737
133.07312,0.0066571785,181.62854,180.4194,47.16612,37.673363,42.59014,1.2091336,39.391968
136.7973,0.006857875,186.66876,185.38863,48.400593,37.914062,43.81632,1.280151,39.59359
140.57227,0.00706081,191.78989,190.43571,49.66165,38.14011,45.065178,1.354192,39.78145
144.40628,0.0072660036,196.99269,195.56136,50.94167,38.350674,46.346024,1.4313496,39.954693
148.31036,0.007473446,202.27557,200.76389,52.228024,38.546436,47.65313,1.5116956,40.113983
152.27147,0.0076831114,207.63695,206.04164,53.532013,38.726307,48.982395,1.5952978,40.25821
156.2878,0.007894953,213.07724,211.39502,54.855785,38.889027,50.334206,1.6822348,40.386097
160.36366,0.008108914,218.59702,216.82443,56.195255,39.032143,51.70958,1.7725844,40.495174
164.49942,0.008324924,224.19829,222.33185,57.552036,39.156395,53.116566,1.8664336,40.58616
168.68703,0.00854289,229.88138,227.91754,58.934734,39.267223,54.5466,1.9638513,40.66448
172.93048,0.0087627135,235.64388,233.57901,60.33668,39.361874,55.99883,2.06488,40.727364
177.23495,0.008984298,241.48575,239.31615,61.75241,39.4363,57.484375,2.16958,40.77074
181.59851,0.009207544,247.40707,245.12906,63.184063,39.493706,58.99798,2.2780116,40.797806
186.01576,0.009432336,253.40965,251.0194,64.638596,39.53348,60.5348,2.390245,40.80793
190.48845,0.009658559,259.4921,256.98575,66.11286,39.55609,62.096607,2.5063198,40.801556
195.01761,0.009886097,265.65765,263.03134,67.6093,39.564945,63.681747,2.6263175,40.782097
199.59946,0.0101148235,271.9064,269.15613,69.13147,39.559513,65.29446,2.7502856,40.74898
204.23708,0.010344628,278.23947,275.36118,70.677246,39.536934,66.9337,2.8782837,40.69936
208.93631,0.010575396,284.65628,281.64594,72.24018,39.497955,68.60245,3.0103528,40.633957
213.70169,0.010807012,291.15704,288.0105,73.81584,39.442013,70.30807,3.1465375,40.55218
218.52818,0.0110393595,297.74142,294.45453,75.40885,39.36892,72.040634,3.2868745,40.453842
223.41766,0.011272316,304.40994,300.97852,77.0176,39.2761,73.800316,3.4314048,40.336357
228.3681,0.0115057565,311.16208,307.5819,78.643715,39.166855,75.58719,3.580155,40.203003
233.37514,0.011739548,317.9989,314.26572,80.29257,39.041225,77.40068,3.7331634,40.053814
238.44691,0.011973561,324.9219,321.03146,81.95761,38.900574,79.244644,3.8904727,39.890137
243.57219,0.012207662,331.93182,327.87973,83.650734,38.746014,81.112946,4.052111,39.713078
248.75536,0.012441727,339.0261,334.808,85.36492,38.57566,83.00734,4.2180705,39.52074
254.00084,0.012675634,346.20508,341.81668,87.0961,38.39059,84.929855,4.3883686,39.31418
259.31033,0.012909261,353.46957,348.90652,88.843636,38.1944,86.88165,4.5630307,39.09699
264.67618,0.013142489,360.82407,356.08197,90.6193,37.984474,88.85988,4.742126,38.86654
270.10208,0.013375207,368.266,363.34033,92.41678,37.76051,90.86543,4.925634,38.62252
275.58606,0.013607303,375.79504,370.6815,94.237785,37.522644,92.89401,5.1135564,38.36505
281.1323,0.013838671,383.41025,378.10437,96.07712,37.270218,94.950874,5.3058887,38.09347
286.7428,0.014069194,391.11353,385.61087,97.934586,37.003826,97.03745,5.5026517,37.808365
292.412,0.014298765,398.90598,393.20215,99.816734,36.722355,99.152885,5.703863,37.508595
298.1348,0.0145272715,406.78955,400.88007,101.730965,36.4301,101.29612,5.9095426,37.198463
303.9179,0.0147545915,414.76315,408.64346,103.66904,36.123814,103.46715,6.119661,36.874706
309.7726,0.014980626,422.82547,416.4913,105.618095,35.799248,105.67209,6.3341904,36.533066
315.69397,0.015205259,430.97687,424.42374,107.583565,35.459606,107.90315,6.5531154,36.176743
321.68054,0.015428371,439.22037,432.4439,109.57034,35.108547,110.1633,6.776455,35.809372
327.7325,0.015649838,447.55725,440.553,111.57936,34.746086,112.45627,7.0041986,35.430984
333.8493,0.015869547,455.98782,448.7515,113.61161,34.372425,114.7825,7.2363195,35.041748
340.02094,0.016087392,464.5123,457.0395,115.67708,33.98613,117.13891,7.4727917,34.640236
346.25153,0.01630326,473.12683,465.41333,117.768036,33.587986,119.52502,7.7135105,34.227215
352.54813,0.016517056,481.83133,473.8729,119.87744,33.178787,121.94236,7.958435,33.803486
358.90677,0.016728673,490.62726,482.41968,122.01041,32.757435,124.39214,8.207542,33.367924
365.32712,0.016938016,499.51495,491.05417,124.16768,32.32297,126.87021,8.460793,32.91958
371.80612,0.017144982,508.49643,499.77823,126.35371,31.87249,129.37271,8.718163,32.455536
378.35562,0.017349463,517.5735,508.59384,128.55952,31.413689,131.90956,8.979622,31.983473
384.9761,0.017551357,526.7467,517.5016,130.78525,30.94709,134.48112,9.245119,31.503922
391.67,0.017750552,536.01654,526.5019,133.02911,30.472956,137.09105,9.514589,31.017128
398.43436,0.017946966,545.3836,535.59564,135.2945,29.99079,139.74245,9.787982,30.522589
405.25253,0.018140512,554.84717,544.782,137.59682,29.496433,142.43134,10.065212,30.016144
412.13834,0.01833112,564.40515,554.05896,139.92075,28.9943,145.1557,10.346179,29.502192
419.0914,0.0185187,574.05743,563.42664,142.26642,28.481157,147.92102,10.630797,28.977499
426.11182,0.018703174,583.8028,572.8838,144.63242,27.957886,150.72334,10.918964,28.44294
433.18802,0.018884456,593.6423,582.43164,147.03165,27.42552,153.56038,11.21061,27.899544
440.33707,0.01906246,603.5827,592.077,149.45445,26.888006,156.43814,11.505772,27.351255
447.55832,0.019237109,613.62366,601.81934,151.90073,26.344463,159.35788,11.804345,26.79718
454.85352,0.01940832,623.76117,611.655,154.36491,25.793594,162.31247,12.106156,26.236017
462.22507,0.019576035,633.9969,621.58575,156.8459,25.233305,165.30025,12.411145,25.665667
469.65784,0.019740196,644.33307,631.6138,159.36163,24.667341,168.3249,12.719262,25.089872
477.15317,0.01990072,654.76715,641.7368,161.90858,24.096434,171.38246,13.030338,24.509356
484.71454,0.020057552,665.29865,651.95435,164.48158,23.513493,174.48016,13.344262,23.917028
492.34525,0.020210624,675.92896,662.268,167.07822,22.915617,177.60211,13.660946,23.309978
500.03522,0.020359868,686.66113,672.68085,169.71335,22.313044,180.74748,13.980331,22.698437
507.80347,0.020505192,697.4941,683.19183,172.36746,21.70894,183.93369,14.30225,22.085571
515.64233,0.02064652,708.42896,693.8024,175.04933,21.100765,187.16487,14.626594,21.468832
523.5726,0.02078379,719.4638,704.5106,177.73407,20.478125,190.44217,14.953185,20.837824
531.5538,0.020916948,730.5968,715.31494,180.4572,19.82333,193.74738,15.281857,20.17485
539.60657,0.021045923,741.8307,726.21814,183.20526,19.161255,197.0893,15.612513,19.504782
547.7387,0.02117057,753.16473,737.2198,185.97174,18.500284,200.47258,15.944925,18.835999
555.92914,0.021290764,764.5999,748.321,188.778,17.836018,203.88884,16.278915,18.164097
564.1753,0.02140643,776.1388,759.5244,191.62604,17.153763,207.33046,16.61436,17.474386
572.5194,0.021517504,787.7775,770.8265,194.46976,16.452553,210.81075,16.951006,16.765882
580.93164,0.021623883,799.5145,782.2258,197.3372,15.731438,214.2959,17.288609,16.037645
589.42554,0.021725448,811.35376,793.7266,200.2233,15.011788,217.81853,17.627022,15.311032
597.99475,0.021822061,823.2917,805.32574,203.13153,14.293798,221.37924,17.965921,14.58624
606.63696,0.02191363,835.32825,817.02313,206.0638,13.575778,224.96544,18.305075,13.861568
615.3508,0.022000106,847.4657,828.82135,209.0243,12.860099,228.5769,18.644337,13.139392
624.1482,0.022081437,859.7058,840.7223,212.00438,12.151379,232.23145,18.98354,12.42432
633.02026,0.022157606,872.04944,852.7269,215.01407,11.45148,235.92497,19.322527,11.718216
641.9344,0.022228627,884.49805,864.837,218.08788,10.759723,239.643,19.661179,11.020393
650.9234,0.022294525,897.04926,877.0499,221.1897,10.072733,243.40208,19.999287,10.327477
660.0356,0.022355353,909.7025,889.3658,224.2698,9.385484,247.24025,20.336721,9.634436
669.23914,0.022411166,922.45715,901.78375,227.36159,8.705732,251.13097,20.673342,8.949023
678.52814,0.022461982,935.3141,914.3051,230.47238,8.035756,255.06621,21.009008,8.273516
687.8482,0.022507848,948.27454,926.93097,233.65956,7.381901,259.02103,21.34362,7.6142545
697.23755,0.022548825,961.33496,939.65796,236.8804,6.738657,263.01187,21.676971,6.965727
706.7075,0.02258499,974.49396,952.4851,240.12236,6.105168,267.0442,22.008936,6.327075
716.25977,0.022616435,987.7537,965.4143,243.38593,5.4821835,271.1189,22.339468,5.699044
725.89557,0.022643242,1001.11523,978.4467,246.67145,4.8704576,275.23718,22.668495,5.0823874
735.61597,0.022665504,1014.57965,991.5837,249.97906,4.2706146,279.3996,22.99596,4.477726
745.42255,0.022683311,1028.1487,1004.8269,253.30928,3.6832256,283.60736,23.32182,3.885628
755.31616,0.022696745,1041.8231,1018.1772,256.66248,3.1088943,287.86108,23.645996,3.3066945
765.2976,0.022705907,1055.6038,1031.6354,260.03876,2.5480175,292.16138,23.96844,2.74132
775.33813,0.022710895,1069.492,1045.2028,263.47,2.0063992,296.49496,24.289118,2.1953068
785.48096,0.02271181,1083.4817,1058.8738,266.9088,1.4889435,300.89984,24.607828,1.6735556
795.73456,0.022708774,1097.5654,1072.641,270.34183,1.0024257,305.35168,24.924366,1.1828401
806.1196,0.02270193,1111.7463,1086.5077,273.76712,0.6000751,309.8758,25.238787,0.7763873
816.67175,0.02269147,1126.0251,1100.4739,277.1781,0.37814346,314.5532,25.551165,0.5504467
827.2758,0.022677757,1140.4032,1114.5413,280.68454,0.3116526,319.31027,25.861788,0.48003808
837.8995,0.022661582,1154.8939,1128.7222,284.29468,0.27875102,324.08142,26.171724,0.44330785
848.5749,0.02264394,1169.4926,1143.0107,287.96445,0.25891456,328.89465,26.48192,0.4197298
859.3459,0.022625608,1184.2015,1157.4082,291.64975,0.24613984,333.77625,26.79328,0.4032985
870.19617,0.022607157,1199.0186,1171.9122,295.36267,0.23501366,338.70312,27.1064,0.38859895
881.1233,0.022588976,1213.9423,1186.5206,299.10367,0.22569981,343.6762,27.421713,0.37579286
892.12415,0.022571309,1228.9728,1201.2333,302.87582,0.21944697,348.69775,27.739523,0.36612725
903.2027,0.022554295,1244.1101,1216.0502,306.6747,0.21359736,353.76437,28.060026,0.35694247
914.35913,0.022538025,1259.3544,1230.9711,310.49957,0.20820993,358.87613,28.383358,0.3482957
925.5942,0.022522526,1274.7032,1245.9938,314.3481,0.20406383,364.03836,28.709538,0.34096435
936.9065,0.022507783,1290.154,1261.1156,318.21875,0.20157953,369.2639,29.038507,0.3353673
948.2897,0.022493772,1305.7081,1276.3378,322.1192,0.20014386,374.5333,29.370302,0.33088958
959.7454,0.02248045,1321.3649,1291.66,326.04703,0.19897383,379.8462,29.70488,0.32674676
971.27484,0.022467775,1337.1232,1307.0809,329.99927,0.19745831,385.20282,30.04218,0.322326
982.87823,0.022455687,1352.9829,1322.6007,333.9765,0.19567722,390.60306,30.38216,0.3177057
994.55524,0.022444136,1368.9437,1338.219,337.97833,0.1937001,396.04666,30.72476,0.312954
1006.3058,0.022433057,1385.0056,1353.9357,342.00473,0.1915852,401.53403,31.069912,0.30812752
1018.1293,0.0224224,1401.1672,1369.7499,346.05533,0.18939038,407.0648,31.417534,0.30328286
1030.026,0.02241211,1417.4297,1385.6621,350.13077,0.18713242,412.63907,31.76759,0.29843524
1041.9954,0.022402141,1433.7908,1401.6708,354.2298,0.18487988,418.25653,32.119984,0.29365197
1054.0343,0.022392448,1450.2524,1417.7778,358.35745,0.18260476,423.91455,32.4747,0.28890356
1066.1338,0.022382988,1466.8129,1433.9812,362.52023,0.17930035,429.6088,32.831657,0.28318214
1078.3046,0.022373728,1483.4713,1450.2804,366.70746,0.17614904,435.34592,33.19078,0.2776688
1090.5476,0.022364633,1500.2278,1466.6758,370.91833,0.17319798,441.12625,33.552044,0.27240944
1102.862,0.022355674,1517.0824,1483.167,375.15335,0.17045377,446.9495,33.915398,0.26740932
1115.2479,0.022346817,1534.0343,1499.7534,379.41217,0.1679311,452.81564,34.28078,0.26268217
1127.7053,0.022338044,1551.0839,1516.4357,383.69504,0.16564465,458.72476,34.648182,0.25824127
1140.2323,0.02232934,1568.2285,1533.2109,388.00085,0.16359346,464.67593,35.01751,0.25408465
1152.8308,0.022320678,1585.4708,1550.082,392.331,0.16177608,470.67017,35.388786,0.2502097
1165.4987,0.022312054,1602.8074,1567.0454,396.68375,0.16020675,476.70627,35.761925,0.24662961
1178.2369,0.022303455,1620.2405,1584.1035,401.06058,0.15887721,482.7849,36.13696,0.24333493
1191.0446,0.022294868,1637.7677,1601.2539,405.45996,0.15779757,488.90567,36.513817,0.24033491
1203.9214,0.022286288,1655.3898,1618.4972,409.88318,0.15693432,495.0682,36.89249,0.23759493
1216.867,0.02227771,1673.1052,1635.8323,414.32883,0.15629734,501.27274,37.27295,0.23512393
1229.8799,0.022269126,1690.9136,1653.2583,418.79785,0.15592697,507.52017,37.655167,0.23296125
1242.9578,0.022260537,1708.8157,1670.7764,423.294,0.15603672,513.8209,38.039154,0.23131935
1256.1074,0.022251934,1726.8063,1688.3816,427.80447,0.15464796,520.1641,38.42478,0.2282189
1269.3262,0.022243321,1744.8893,1706.0771,432.33585,0.15290117,526.5498,38.812134,0.22479929
1282.6132,0.022234682,1763.0652,1723.864,436.89008,0.15143022,532.9781,39.20119,0.22169353
1295.9675,0.022226023,1781.332,1741.7402,441.46606,0.15003914,539.45306,39.59193,0.21870483
1309.3885,0.022217326,1799.69,1759.7058,446.06415,0.14886828,545.969,39.9843,0.21597268
1322.8712,0.022208596,1818.1384,1777.7601,450.68918,0.1471556,552.5248,40.378304,0.21273416
1336.4115,0.02219983,1836.6749,1795.901,455.34247,0.14460064,559.1189,40.773872,0.20868815
1350.0155,0.02219103,1855.2981,1814.1272,460.01688,0.14217578,565.7523,41.17098,0.20480607
1363.6958,0.022182183,1874.009,1832.4396,464.70093,0.14020993,572.44794,41.569614,0.20141613
1377.4398,0.022173291,1892.8059,1850.8363,469.40543,0.1384275,579.184,41.969738,0.19824208
1391.2477,0.022164347,1911.6898,1869.3184,474.13092,0.13679811,585.9601,42.371353,0.19525261
1405.1149,0.022155358,1930.6587,1887.8844,478.8808,0.1353138,592.7723,42.774433,0.1924392
1419.0325,0.022146316,1949.715,1906.5358,483.66458,0.13228293,599.62494,43.179,0.18810944
1433.0105,0.022137236,1968.8535,1925.2687,488.46942,0.12918113,606.51666,43.584972,0.18373828
1447.0483,0.0221281,1988.074,1944.0817,493.294,0.1261829,613.44604,43.9923,0.17949954
1461.1475,0.02211891,2007.3777,1962.9767,498.13904,0.123322,620.41376,44.401,0.17542633
1475.3071,0.022109667,2026.7644,1981.9532,503.0047,0.120603345,627.4195,44.81109,0.17152295
1489.5262,0.022100363,2046.232,2001.0096,507.89044,0.11805878,634.46277,45.222473,0.16782057
1503.8059,0.022091009,2065.7822,2020.1471,512.79626,0.11566286,641.54443,45.635216,0.16429318
1518.1449,0.022081597,2085.4136,2039.3644,517.7221,0.113448836,648.6633,46.049263,0.16097341
1532.5424,0.022072133,2105.1245,2058.6602,522.66766,0.11139378,655.81946,46.46459,0.1578378
1546.9999,0.02206262,2124.9172,2078.036,527.6331,0.10951294,663.01355,46.881237,0.15490092
1561.5161,0.022053055,2144.7905,2097.4912,532.61865,0.107812256,670.2448,47.29918,0.1521682
1576.0895,0.02204345,2164.742,2117.0237,537.6238,0.1062706,677.5128,47.71838,0.14961798
1590.7222,0.022033796,2184.7742,2136.6353,542.64844,0.10489851,684.8182,48.13887,0.14726026
1605.4111,0.0220241,2204.8835,2156.3232,547.6926,0.10367354,692.15967,48.56058,0.1450721
1620.1571,0.02201437,2225.0708,2176.0874,552.7559,0.1026213,699.5378,48.983532,0.14307858
1634.959,0.0220046,2245.3362,2195.9285,557.83954,0.1016521,706.952,49.40773,0.14118949
1649.8124,0.021994798,2265.6782,2215.8452,562.94727,0.100535475,714.40063,49.83313,0.13917391
1664.7281,0.021984959,2286.0955,2235.836,568.06604,0.09974533,721.8976,50.25972,0.13750522
1679.707,0.02197509,2306.5952,2255.9075,573.202,0.09926438,729.4467,50.687637,0.13616568
1694.7302,0.021965194,2327.1794,2276.0627,578.3768,0.097619385,737.0298,51.11695,0.1336816
1709.7994,0.021955272,2347.844,2296.2964,583.58344,0.095241345,744.6462,51.54755,0.13048358
1724.9233,0.021945316,2368.5835,2316.6042,588.8091,0.093128115,752.2985,51.979317,0.12756905
1740.1042,0.021935333,2389.4006,2336.9883,594.0538,0.091258116,759.9881,52.4123,0.12491595
1755.3381,0.021925313,2410.2915,2357.445,599.3177,0.089610636,767.7126,52.846397,0.12250317
1770.6268,0.021915263,2431.2576,2377.9758,604.6002,0.0881817,775.47327,53.281647,0.12032632
1785.9685,0.021905178,2452.2961,2398.5784,609.90125,0.08694313,783.2685,53.71798,0.11835687
1801.3623,0.021895062,2473.4067,2419.2515,615.2207,0.08588948,791.0986,54.155396,0.116588965
1816.8058,0.021884916,2494.5894,2439.9954,620.56036,0.08486496,798.96326,54.59388,0.11486643
1832.2949,0.021874744,2515.8435,2460.81,625.92505,0.08370975,806.863,55.033432,0.11302904
1847.8213,0.021864548,2537.1665,2481.6924,631.3196,0.08200612,814.78827,55.474003,0.11065879
1863.4196,0.02185433,2558.5613,2502.6455,636.71216,0.07940794,822.76154,55.915638,0.1074091
1879.0725,0.021844085,2580.0266,2523.668,642.11945,0.07704029,830.7718,56.358315,0.10440478
1894.7758,0.02183381,2601.5608,2544.7585,647.5437,0.0749086,838.8151,56.80198,0.10165091
1910.5303,0.021823503,2623.1653,2565.9187,652.986,0.072989635,846.89294,57.24666,0.099123865
1926.3344,0.02181317,2644.8384,2587.1462,658.4457,0.0712775,855.00354,57.69231,0.096817486
1942.1873,0.021802804,2666.578,2608.439,663.92175,0.06975181,863.14703,58.138878,0.09471104
1958.087,0.021792416,2688.3833,2629.7969,669.4153,0.068400025,871.3222,58.586365,0.09279176
1974.0364,0.021782003,2710.256,2651.2214,674.9258,0.06721918,879.53046,59.034805,0.09105627
1990.0312,0.021771561,2732.1914,2672.7073,680.4516,0.06618264,887.7694,59.48407,0.08947776
2006.0726,0.021761104,2754.1907,2694.256,685.9934,0.06530044,896.0395,59.93423,0.08806591
2022.1589,0.021750625,2776.252,2715.867,691.5523,0.06455224,904.34015,60.385216,0.08680008
2038.2924,0.02174013,2798.378,2737.5408,697.1263,0.06368712,912.6772,60.8371,0.08542912
2054.4707,0.021729616,2820.5654,2759.2756,702.7161,0.06287921,921.0446,61.289803,0.08412681
2070.6917,0.021719094,2842.8118,2781.0686,708.321,0.0621592,929.4409,61.743294,0.08292365
2086.9563,0.021708561,2865.1184,2802.921,713.94104,0.0615364,937.8666,62.197598,0.0818287
2103.2617,0.021698015,2887.4805,2824.8281,719.5751,0.061001092,946.32025,62.65259,0.080832005
2119.6096,0.02168746,2909.9019,2846.7935,725.2242,0.06055061,954.8028,63.108376,0.07993061
2135.9995,0.021676898,2932.3809,2868.8157,730.88794,0.06018373,963.31384,63.56491,0.079123065
2152.4294,0.021666327,2954.9153,2890.893,736.5662,0.059896335,971.8521,64.022156,0.07840503
2168.8928,0.021655751,2977.5054,2913.0254,742.26587,0.059518367,980.41644,64.48012,0.077606216
2185.3923,0.021645175,3000.151,2935.212,747.9829,0.05914573,989.00726,64.93879,0.076822326
2201.9314,0.021634595,3022.851,2957.4531,753.71497,0.058734823,997.62305,65.39816,0.076009475
2218.5178,0.021624006,3045.6035,2979.7454,759.4504,0.057515793,1006.2653,65.85815,0.07439765
