con,Omega,ygross,ynet,inv,Eind,scc,Dam,Emissions
77.01486,0.0028556,105.17594,104.8756,27.810537,31.546762,24.816816,0.3003404,34.146763
79.51429,0.0031533004,108.65422,108.3116,28.742235,31.928478,25.482718,0.3426194,34.46936
82.085945,0.0034202146,112.233116,111.84926,29.703434,32.324203,26.18606,0.38386136,34.807316
84.74679,0.0036624086,115.90893,115.48442,30.67289,32.724422,26.927378,0.42450586,35.151073
87.48816,0.003885253,119.681595,119.2166,31.658672,33.126488,27.70242,0.46499327,35.497963
90.30751,0.0040932824,123.54933,123.0436,32.66109,33.526062,28.510523,0.5057223,35.843616
93.20195,0.0042902166,127.507805,126.96077,33.67834,33.92073,29.349724,0.54703605,36.18558
96.16257,0.0044790516,131.55595,130.9667,34.717995,34.31127,30.219864,0.5892459,36.52463
99.19716,0.0046621654,135.69232,135.05971,35.770363,34.69125,31.122936,0.63262004,36.854282
102.30212,0.0048414334,139.91618,139.2388,36.838165,35.063343,32.05782,0.6773949,37.177193
105.47407,0.0050183167,144.22531,143.50156,37.922413,35.42767,33.019897,0.7237683,37.493458
108.71082,0.005193949,148.61876,147.84683,39.0239,35.77691,34.0093,0.77191824,37.795723
112.012924,0.0053692097,153.09558,152.27357,40.141064,36.11212,35.026978,0.82200223,38.085033
115.38169,0.0055447645,157.6539,156.77974,41.270584,36.43447,36.07388,0.87415373,38.362526
118.80951,0.00572112,162.29378,161.3653,42.420128,36.74607,37.14739,0.9285022,38.630287
122.29506,0.005898654,167.01497,166.02979,43.590553,37.046036,38.244698,0.9851635,38.887405
125.84067,0.0060776514,171.81764,170.7734,44.779663,37.333626,39.366844,1.0442477,39.133133
129.4455,0.006258323,176.7019,175.59604,45.988037,37.60426,40.51975,1.1058576,39.362846
133.11224,0.0064408206,181.667,180.49692,47.21218,37.85873,41.6978,1.1700846,39.57733
136.84068,0.0066252467,186.71162,185.47461,48.450924,38.09767,42.900623,1.2370105,39.7772
140.62723,0.0068116575,191.83546,190.52875,49.707397,38.318123,44.129406,1.3067175,39.959465
144.47104,0.007000085,197.03947,195.66017,50.983295,38.522316,45.383377,1.3792931,40.12633
148.37477,0.0071905316,202.32536,200.87053,52.27767,38.711193,46.663788,1.4548268,40.27874
152.33728,0.0073829805,207.69107,206.15768,53.589462,38.88431,47.96779,1.5333791,40.416214
156.35655,0.007577404,213.13666,211.52165,54.92075,39.041927,49.29862,1.6150227,40.538998
160.43903,0.007773765,218.66194,216.96213,56.264595,39.18106,50.659874,1.6998266,40.64409
164.57913,0.007972012,224.26631,222.47847,57.625984,39.30251,52.045723,1.7878538,40.732273
168.7764,0.00817209,229.95013,228.07097,59.005634,39.40687,53.45636,1.8791733,40.804134
173.03069,0.008373934,235.71321,233.73938,60.40352,39.49498,54.891838,1.9738469,40.860466
177.34114,0.008577471,241.5592,239.48724,61.823967,39.56703,56.352016,2.071967,40.901474
181.7092,0.008782627,247.48564,245.31206,63.262928,39.62114,57.83499,2.173574,40.925236
186.1316,0.008989329,253.4935,251.21475,64.724945,39.66363,59.346554,2.2787366,40.938076
190.61948,0.009197496,259.58337,257.19586,66.19911,39.689323,60.89205,2.387517,40.934795
195.16696,0.009407053,265.7567,263.2567,67.692535,39.69811,62.465187,2.4999874,40.915257
199.77106,0.009617925,272.01242,269.3962,69.20722,39.69139,64.06487,2.616195,40.880867
204.4316,0.009830028,278.34937,275.6132,70.741936,39.666046,65.69001,2.7361817,40.82848
209.15253,0.010043281,284.7668,281.90683,72.292015,39.62291,67.341774,2.8599932,40.758907
213.93532,0.010257596,291.26486,288.2772,73.856186,39.56601,69.02676,2.9876773,40.676174
218.76549,0.010472883,297.84665,294.72733,75.45182,39.49317,70.73796,3.119313,40.5781
223.64809,0.010689053,304.51492,301.25995,77.07658,39.404564,72.47302,3.254976,40.464825
228.59273,0.010906023,311.26926,307.87454,78.72027,39.300476,74.23614,3.3947096,40.336624
233.59857,0.011123704,318.1104,314.57187,80.384514,39.18107,76.02811,3.538566,40.193657
238.66586,0.011342009,325.03717,321.3506,82.067665,39.04586,77.84815,3.6865742,40.035423
243.79521,0.01156085,332.04993,328.2111,83.76947,38.89509,79.696434,3.838779,39.862152
248.9831,0.01178014,339.14935,335.1541,85.49418,38.728973,81.57275,3.9952269,39.674046
254.2312,0.011999788,346.33517,342.1792,87.23963,38.547523,83.477295,4.155948,39.471107
259.5399,0.0122197075,353.60754,349.2866,89.00564,38.350834,85.41085,4.320981,39.25342
264.90643,0.01243981,360.96732,356.477,90.79586,38.141624,87.37978,4.490365,39.02369
270.33832,0.012660003,368.41623,363.75208,92.604355,37.918594,89.380295,4.6641507,38.78061
275.82812,0.012880207,375.95526,371.11288,94.439575,37.682827,91.40552,4.8423815,38.52524
281.3805,0.013100335,383.58255,378.5575,96.2949,37.43298,93.45978,5.02506,38.256233
286.99692,0.013320306,391.29874,386.08652,98.16934,37.16915,95.544205,5.2122197,37.97369
292.67856,0.013540038,399.1046,393.7007,100.06212,36.887302,97.66675,5.4038916,37.673546
298.4238,0.013759447,407.00104,401.4009,101.975746,36.58943,99.823685,5.600109,37.3578
304.22955,0.013978445,414.98605,409.18524,103.911804,36.27907,102.01075,5.80086,37.029964
310.09933,0.014196937,423.05984,417.0537,105.86678,35.956345,104.228294,6.0061536,36.690166
316.02225,0.014414835,431.22745,425.01135,107.85642,35.619858,106.473045,6.2160716,36.33699
322.00955,0.014632054,439.48584,433.05527,109.86642,35.26971,108.7509,6.4305806,35.97054
328.0627,0.014848508,447.83527,441.18555,111.89562,34.90703,111.06077,6.649686,35.591927
334.18045,0.01506411,456.27658,449.40314,113.946175,34.53261,113.40157,6.8734007,35.20193
340.36356,0.015278781,464.81003,457.70834,116.01748,34.14499,115.77674,7.1017303,34.799095
346.61243,0.01549244,473.43552,466.10086,118.108665,33.74407,118.187195,7.3346715,34.383297
352.9233,0.015705008,482.15332,474.58115,120.22428,33.33195,120.62889,7.572222,33.956642
359.29648,0.015916392,490.9638,483.14944,122.36424,32.908775,123.10201,7.814372,33.519268
365.73508,0.016126523,499.8664,491.8053,124.52487,32.474632,125.605965,8.061107,33.07124
372.2388,0.016335318,508.8621,500.54965,126.70742,32.030148,128.13936,8.312424,32.613194
378.8058,0.016542707,517.9517,509.3834,128.91457,31.574057,130.70819,8.568324,32.143845
385.43497,0.016748613,527.1361,518.3073,131.14796,31.107246,133.31134,8.828799,31.664078
392.1217,0.016952965,536.417,527.3231,133.41429,30.63013,135.94601,9.09386,31.174301
398.87653,0.017155688,545.7948,536.4313,135.70341,30.14434,138.6155,9.363485,30.676144
405.701,0.017356705,555.2694,545.6318,138.01392,29.650402,141.32066,9.637647,30.17011
412.58145,0.017555958,564.8412,554.92487,140.35939,29.146746,144.05594,9.916327,29.654636
419.52844,0.017753374,574.5084,564.30896,142.72777,28.634205,146.82364,10.199463,29.130547
426.54575,0.017948896,584.27124,573.78424,145.11572,28.113962,149.62697,10.487023,28.599018
433.62415,0.018142456,594.12994,583.35095,147.5319,27.582,152.46942,10.7789755,28.056028
440.7778,0.018333985,604.09015,593.0147,149.96883,27.044815,155.35089,11.075378,27.508064
447.99426,0.018523429,614.1517,602.77545,152.43848,26.500809,158.26945,11.376195,26.953526
455.2753,0.018710721,624.3108,612.6295,154.9351,25.947618,161.22955,11.681307,26.390041
462.62747,0.018895807,634.56714,622.5765,157.45215,25.388485,164.2269,11.990659,25.820848
470.05246,0.019078635,644.9219,632.6177,159.98903,24.822191,167.26697,12.304229,25.244722
477.55048,0.019259142,655.3744,642.75244,162.54416,24.244352,170.35672,12.621948,24.657276
485.12308,0.01943727,665.9229,652.97925,165.11511,23.659414,173.48586,12.943725,24.062946
492.7572,0.01961296,676.5699,663.30035,167.71503,23.05552,176.64903,13.269539,23.449877
500.478,0.01978615,687.3139,673.71466,170.31236,22.403606,179.85567,13.599296,22.789
508.2636,0.01995675,698.1519,684.21906,172.9326,21.743368,183.09071,13.932843,22.119999
516.12195,0.020124607,709.0846,694.8145,175.56944,21.078163,186.36343,14.270047,21.44623
524.0518,0.020289576,720.11304,705.50226,178.22498,20.407322,189.67694,14.610788,20.76702
532.03485,0.020440359,731.2344,716.2877,180.92587,19.74489,193.01817,14.946694,20.096409
540.0816,0.02057951,742.4495,727.17017,183.66005,19.087065,196.38959,15.279245,19.43059
548.2035,0.02070897,753.7636,738.15393,186.42052,18.434454,199.79741,15.609669,18.770168
556.3682,0.020830238,765.1822,749.2433,189.24258,17.780148,203.23634,15.938927,18.10823
564.59564,0.020944454,776.705,760.43744,192.10428,17.118458,206.70079,16.267664,17.43908
572.9213,0.021052474,788.32715,771.7309,194.96277,16.440649,210.21848,16.596235,16.753979
581.3389,0.021154936,800.0537,783.1286,197.83012,15.751291,213.77718,16.925085,16.057497
589.8095,0.021252288,811.88965,794.6352,200.7491,15.048511,217.37053,17.254513,15.347756
598.3645,0.021344839,823.82916,806.24457,203.68495,14.344256,221.0072,17.5845,14.636697
606.97864,0.021432804,835.8691,817.9541,206.65782,13.627462,224.6579,17.915018,13.913252
615.6573,0.021516342,848.0101,829.764,209.66174,12.896107,228.3252,18.246073,13.1754
624.41,0.021595553,860.2555,841.6778,212.69522,12.169194,232.02582,18.577694,12.442136
633.2448,0.021670472,872.60803,853.69824,215.75342,11.450494,235.76823,18.909826,11.71723
642.15015,0.021741154,885.0685,865.82605,218.8476,10.733222,239.56166,19.242409,10.993893
651.1239,0.021807652,897.63434,878.059,221.9779,10.019514,243.40024,19.575296,10.274259
660.17896,0.021870008,910.3054,890.397,225.13266,9.314479,247.27962,19.908386,9.56343
669.3389,0.021928271,923.0828,902.8412,228.28851,8.614232,251.23802,20.24161,8.857524
678.58105,0.021982497,935.95935,915.38464,231.4616,7.920004,255.24382,20.574724,8.157763
687.89984,0.022032721,948.9344,928.0268,234.6573,7.2331786,259.2878,20.907606,7.4655323
697.29767,0.022078993,962.01044,940.7702,237.8762,6.554605,263.37106,21.240221,6.781675
706.7748,0.022121359,975.18744,953.615,241.1183,5.884658,267.49518,21.572472,6.1065645
716.3419,0.022159874,988.4666,966.5623,244.3732,5.220974,271.68057,21.904297,5.4378347
725.9846,0.02219459,1001.84106,979.6056,247.64949,4.5649333,275.9033,22.235453,4.7768636
735.6965,0.022225555,1015.31274,992.7469,250.95581,3.9177148,280.16116,22.56589,4.1248264
745.4661,0.022252807,1028.8824,1005.987,254.3048,3.2798605,284.45035,22.895521,3.4822628
755.2988,0.022276407,1042.548,1019.3238,257.6887,2.6502721,288.7747,23.224224,2.848072
765.1961,0.0222964,1056.3134,1032.7614,261.11044,2.030646,293.134,23.551987,2.2239487
775.19434,0.022312837,1070.1821,1046.3033,264.53918,1.4274688,297.56052,23.878798,1.6163762
785.29175,0.022325765,1084.158,1059.9532,267.98166,0.84425837,302.05597,24.204657,1.0288705
795.54156,0.022335265,1098.2424,1073.7129,271.40335,0.33751848,306.62808,24.529537,0.5179329
806.0932,0.022341413,1112.4276,1087.5745,274.7139,0.12854359,311.40555,24.853207,0.30485573
816.52,0.022344438,1126.7239,1101.5479,278.3101,0.083634906,316.16116,25.176012,0.25593814
827.0169,0.022345169,1141.138,1115.639,281.9609,0.06223526,320.99435,25.49892,0.2306207
837.59204,0.022344535,1155.6608,1129.8381,285.6426,0.044295102,325.87302,25.822706,0.20885193
848.24536,0.022343248,1170.2925,1144.1444,289.35376,0.028801799,330.79724,26.148136,0.18961702
858.9718,0.022341793,1185.0323,1158.5566,293.09906,0.016525498,335.76755,26.475748,0.17368416
869.7688,0.022340493,1199.8801,1173.0741,296.87973,0.007545303,340.7841,26.805914,0.16113058
880.64166,0.022339543,1214.8323,1187.6935,300.68677,0.0,345.84616,27.138798,0.15009306
891.6119,0.022339087,1229.8895,1202.4149,304.50064,0.0,350.99255,27.474607,0.14668027
902.6738,0.022339184,1245.0544,1217.241,308.32736,0.0,356.21408,27.813501,0.14334513
913.8126,0.022339871,1260.3286,1232.173,312.18375,0.0027750102,361.49738,28.155579,0.14286076
925.0424,0.022341156,1275.7079,1247.207,316.05225,0.009004307,366.84674,28.50079,0.14590482
936.35034,0.022343028,1291.1877,1262.3386,319.9398,0.015231573,372.24844,28.849047,0.14901932
947.7319,0.02234546,1306.7673,1277.5669,323.8501,0.020806525,377.69696,29.200315,0.15155226
959.1878,0.022348415,1322.4473,1292.8927,327.78326,0.025806597,383.19257,29.554596,0.15357952
970.7173,0.022351857,1338.2269,1308.3151,331.73914,0.030308148,388.7352,29.91186,0.15517583
982.32086,0.022355737,1354.107,1323.835,335.71814,0.034379493,394.32495,30.27206,0.15640795
993.99817,0.022360004,1370.087,1339.4519,339.72015,0.038091045,399.96204,30.63515,0.15734492
1005.7493,0.02236461,1386.1671,1355.1661,343.74548,0.041505426,405.6462,31.001091,0.15804774
1017.56726,0.022369515,1402.3467,1370.9768,347.80035,0.04510958,411.37622,31.369816,0.15900205
1029.4448,0.022374677,1418.625,1386.8837,351.8915,0.04925477,417.1504,31.741276,0.16055761
1041.3922,0.022380054,1434.9979,1402.8826,356.00446,0.052937724,422.9702,32.11533,0.16170982
1053.4111,0.022385614,1451.4675,1418.9755,360.13983,0.056224942,428.83627,32.491993,0.16252375
1065.5005,0.022391336,1468.0323,1435.1611,364.29715,0.059206594,434.74832,32.871204,0.16308838
1077.6602,0.022397175,1484.6923,1451.4396,368.4764,0.06194929,440.70618,33.252914,0.16346903
1089.8903,0.022403115,1501.4482,1467.8112,372.6785,0.064493336,446.71024,33.637123,0.16370477
1102.1909,0.022409132,1518.3003,1484.2764,376.90292,0.0669059,452.7603,34.02379,0.16386147
1114.562,0.022415204,1535.2474,1500.8345,381.1495,0.06919454,458.85645,34.412884,0.16394559
1127.0039,0.022421315,1552.291,1517.4866,385.4192,0.07142126,464.99878,34.8044,0.16401789
1139.5044,0.022427447,1569.4286,1534.2303,389.72055,0.069996014,471.19672,35.198277,0.16048722
1152.0724,0.022433588,1586.6603,1551.0659,394.046,0.067819886,477.44193,35.594486,0.15625347
1164.7074,0.022439713,1603.9825,1567.9896,398.39203,0.06560832,483.73227,35.992905,0.15203118
1177.4115,0.022445807,1621.3983,1585.0049,402.7603,0.06337726,490.06818,36.393597,0.14783497
1190.1829,0.022451857,1638.906,1602.1095,407.1503,0.061168786,496.44897,36.796486,0.14370611
1203.0226,0.02245785,1656.5059,1619.3043,411.56204,0.059035603,502.8754,37.201557,0.1396962
1215.9299,0.02246378,1674.1976,1636.5889,415.99545,0.056979705,509.3469,37.60881,0.1358063
1228.9043,0.022469644,1691.981,1653.9626,420.45087,0.055017103,515.86346,38.018208,0.13205135
1241.9465,0.02247543,1709.8566,1671.4269,424.92825,0.053160854,522.42535,38.429764,0.12844351
1255.0559,0.022481132,1727.8236,1688.9802,429.42752,0.051446136,529.0322,38.843433,0.12501708
1268.2316,0.022486754,1745.8811,1706.6218,433.9485,0.04984772,535.6838,39.259197,0.12174584
1281.4724,0.02249229,1764.0299,1724.3528,438.4933,0.048491642,542.37946,39.677074,0.11875495
1294.7692,0.022497745,1782.2683,1742.1714,443.0695,0.047682043,549.11487,40.09702,0.11634773
1308.1301,0.022503108,1800.5939,1760.075,447.66614,0.046842672,555.89374,40.518955,0.11394706
1321.5558,0.022508385,1819.0072,1778.0643,452.28384,0.046031702,562.7163,40.942917,0.11161027
1335.0448,0.022513581,1837.5071,1796.1381,456.9218,0.04523514,569.5823,41.368862,0.10932264
1348.5975,0.022518694,1856.0931,1814.2964,461.58038,0.044452976,576.4915,41.79679,0.10708326
1362.2207,0.02252372,1874.7671,1832.5404,466.25357,0.043201853,583.4433,42.22673,0.104408085
1375.913,0.022528665,1893.5337,1850.8749,470.948,0.042905033,590.4397,42.658783,0.10271961
1389.668,0.022533527,1912.3892,1869.2961,475.6666,0.043451037,597.47815,43.092873,0.10190553
1403.485,0.022538304,1931.3289,1887.7999,480.40494,0.043992892,604.5594,43.528877,0.1011183
1417.3563,0.022543002,1950.3541,1906.3872,485.1719,0.043260477,611.68176,43.966835,0.09908698
1431.2876,0.022547625,1969.4662,1925.0592,489.96326,0.042126194,618.84784,44.40678,0.09668334
1445.2701,0.022552166,1988.665,1943.8164,494.78784,0.04114383,626.0449,44.848705,0.094460465
1459.3168,0.022556635,2007.9529,1962.6603,499.63483,0.040392786,633.28564,45.292664,0.092497125
1473.4254,0.02256102,2027.3295,1981.591,504.5064,0.039835215,640.5774,45.73862,0.090754814
1487.5942,0.022565326,2046.7899,2000.6036,509.39923,0.039385032,647.91644,46.18648,0.08914682
1501.8237,0.022569556,2066.3342,2019.698,514.3128,0.039007835,655.29785,46.636242,0.08763816
1516.1133,0.022573704,2085.9607,2038.8728,519.2463,0.038730938,662.7209,47.08786,0.08625552
1530.4617,0.022577772,2105.668,2058.127,524.19977,0.038518243,670.185,47.54129,0.08496226
1544.8702,0.022581767,2125.4583,2077.462,529.1736,0.038389422,677.691,47.9966,0.08377739
1559.3383,0.022585696,2145.33,2096.8762,534.16724,0.038330615,685.23846,48.453773,0.08268656
1573.8618,0.022589548,2165.2815,2116.3687,539.18225,0.037312657,692.83655,48.912727,0.08066003
1588.4395,0.022593327,2185.3123,2135.9387,544.2205,0.03575312,700.4826,49.373474,0.07811486
1603.0656,0.022597032,2205.4185,2155.5825,549.2836,0.03434486,708.17175,49.835915,0.075743414
1617.7477,0.02260066,2225.601,2175.301,554.3651,0.032984085,715.90045,50.300053,0.07344137
1632.4835,0.02260421,2245.8604,2195.0945,559.4674,0.031918384,723.6662,50.765903,0.071455784
1647.2742,0.022607688,2266.1985,2214.965,564.5918,0.03127197,731.4689,51.233513,0.069910415
1662.1237,0.022611087,2286.6191,2234.916,569.73724,0.03071034,739.31445,51.702938,0.068470225
1677.0319,0.022614414,2307.1208,2254.9468,574.9029,0.029794663,747.2068,52.17419,0.066695966
1691.997,0.02261767,2327.7014,2275.0542,580.0885,0.029039355,755.1396,52.647182,0.06510158
1707.0176,0.022620855,2348.3594,2295.2375,585.29364,0.028422995,763.1126,53.121902,0.06366524
1722.093,0.022623975,2369.0933,2315.495,590.51794,0.027935484,771.12506,53.598305,0.062376425
1737.2245,0.02262702,2389.905,2335.8286,595.762,0.027560657,779.1774,54.076427,0.06121849
1752.4095,0.022630002,2410.791,2356.2349,601.0246,0.02728919,787.269,54.556202,0.06018172
1767.6488,0.022632912,2431.752,2376.7144,606.3057,0.027116038,795.3995,55.037632,0.059260663
1782.941,0.022635754,2452.7866,2397.2659,611.6058,0.02704668,803.5684,55.520676,0.058460426
1798.2845,0.022638543,2473.8938,2417.8884,616.925,0.027240494,811.7813,56.00535,0.057939976
1813.6746,0.022641268,2495.072,2438.5803,622.2668,0.027673595,820.03503,56.491592,0.057675067
1829.1154,0.022643935,2516.3198,2459.3406,627.6252,0.028123613,828.326,56.979385,0.05744292
1844.6051,0.022646546,2537.6357,2480.167,633.0011,0.028577914,836.65326,57.46868,0.057230577
1860.1453,0.022649104,2559.0205,2501.061,638.3934,0.029047757,845.0173,57.959522,0.057048917
1875.7338,0.022651602,2580.4724,2522.0205,643.80273,0.029532421,853.41754,58.45183,0.056896906
1891.3735,0.022654045,2601.9912,2543.0457,649.22546,0.029902998,861.8625,58.94563,0.056645304
1907.07,0.022656437,2623.5776,2564.1367,654.65735,0.02992044,870.36005,59.440926,0.05605467
1922.8207,0.02265878,2645.2302,2585.2927,660.09924,0.029507292,878.90094,59.93769,0.055047277
1938.6362,0.022661071,2666.947,2606.511,665.5386,0.0294073,887.5062,60.435875,0.05436654
1954.494,0.022663312,2688.7244,2627.789,670.9945,0.029065903,896.155,60.935402,0.05345764
1970.3959,0.022665495,2710.5693,2649.1328,676.4718,0.028583337,904.844,61.43639,0.052420434
1986.3304,0.022667628,2732.4731,2670.5344,681.9738,0.028138291,913.5613,61.938686,0.05143342
2002.2483,0.022669706,2754.4377,2691.9954,687.5519,0.028044268,922.2849,62.442303,0.050809734
2018.2223,0.02267173,2776.468,2713.521,693.1377,0.028077548,931.0683,62.94734,0.050325397
2034.2478,0.022673704,2798.5696,2735.1155,698.7408,0.028251473,939.89087,63.45394,0.049993467
2050.3218,0.02267563,2820.7397,2756.7776,704.36255,0.028538963,948.7504,63.962048,0.04978656
2066.4426,0.0226775,2842.975,2778.5037,710.0007,0.0289293,957.64575,64.471565,0.049693752
2082.6099,0.022679327,2865.2766,2800.294,715.65643,0.029403826,966.57715,64.982544,0.04969612
2098.8179,0.022681102,2887.6382,2822.1433,721.33,0.029186888,975.5523,65.49481,0.0490178
2115.0674,0.022682836,2910.059,2844.0503,727.0198,0.028678041,984.5648,66.00839,0.048058037
2131.3716,0.022684522,2932.5342,2866.011,732.70715,0.027755013,993.62195,66.52313,0.046694342
2147.723,0.022686163,2955.0679,2888.0288,738.40436,0.026766904,1002.7168,67.039154,0.045275595
2164.118,0.022687752,2977.6626,2910.1062,744.1174,0.02588023,1011.8457,67.55647,0.043968085
2180.555,0.02268929,3000.3154,2932.2405,749.84485,0.02509203,1021.00775,68.07503,0.042768627
2197.0337,0.02269078,3023.0278,2954.433,755.5884,0.024379188,1030.203,68.594864,0.041653838
