con,Omega,ygross,ynet,inv,Eind,scc,Dam,Emissions
76.936844,0.0028556,105.17594,104.8756,27.938759,36.845238,10.975878,0.3003404,39.445236
79.46071,0.0022726431,108.67327,108.42629,28.965584,37.49581,11.253089,0.24697557,40.036694
82.08184,0.0021115942,112.27892,112.04183,29.959995,38.154613,11.57985,0.23708752,40.637726
84.78661,0.0020974209,115.985504,115.74223,30.955622,38.818108,11.93415,0.24327043,41.24476
87.55995,0.0021389388,119.78853,119.53232,31.972364,39.48401,12.298386,0.2562203,41.855484
90.4095,0.0022027846,123.68392,123.411476,33.001972,40.150192,12.676736,0.27244905,42.467747
93.342415,0.0022762176,127.67097,127.38036,34.03795,40.81583,13.071343,0.29060692,43.08069
96.341606,0.0023543036,131.74916,131.43898,35.097374,41.48012,13.474755,0.3101775,43.69348
99.40393,0.002435139,135.91562,135.58464,36.180706,42.14152,13.886291,0.33097342,44.304558
102.546844,0.0025180022,140.16774,139.8148,37.267952,42.798695,14.312653,0.35294268,44.912544
105.76535,0.0026026354,144.50433,144.12825,38.362885,43.45096,14.753454,0.3760921,45.516747
109.04517,0.0026889546,148.9246,148.52415,39.47898,44.097412,15.203341,0.40045148,46.11623
112.38774,0.0027769436,153.42694,153.00089,40.61314,44.737343,15.661273,0.42605793,46.71026
115.79376,0.0028666074,158.01068,157.55772,41.76396,45.370193,16.13204,0.4529546,47.29825
119.265045,0.0029579576,162.67622,162.19505,42.93,45.995735,16.6145,0.48118937,47.87995
122.793884,0.0030510058,167.42293,166.91214,44.11825,46.613297,17.107805,0.51080835,48.454666
126.38197,0.0031457623,172.25069,171.70883,45.326855,47.222797,17.616322,0.5418597,49.022305
130.02943,0.0032422303,177.15904,176.58466,46.555214,47.82359,18.134192,0.57439035,49.582172
133.74098,0.003340415,182.1476,181.53915,47.79818,48.415546,18.66303,0.6084486,50.134148
137.51495,0.003440317,187.21683,186.57274,49.057785,48.998295,19.206383,0.6440852,50.67782
141.35313,0.0035419343,192.3658,191.68445,50.331326,49.57152,19.761803,0.681347,51.21286
145.248,0.0036452624,197.59515,196.87488,51.626873,50.135193,20.324844,0.7202862,51.739212
149.2009,0.0037502944,202.90489,202.14395,52.94304,50.689022,20.897484,0.7609531,52.25657
153.21129,0.0038570238,208.29494,207.49155,54.28026,51.23288,21.480444,0.8033985,52.764786
157.2805,0.0039654383,213.76538,212.91772,55.63721,51.76643,22.073229,0.8476734,53.263504
161.41081,0.004075528,219.31683,218.423,57.01219,52.289936,22.675406,0.8938319,53.752964
165.60255,0.0041872812,224.94957,224.00764,58.405094,52.803017,23.288624,0.9419271,54.232784
169.85448,0.0043006805,230.66339,229.67139,59.816906,53.30576,23.915533,0.99200946,54.703022
174.16591,0.004415714,236.45857,235.41444,61.24854,53.797806,24.552225,1.0441334,55.16329
178.54178,0.0045323656,242.33643,241.23805,62.69629,54.27951,25.199154,1.0983572,55.61395
182.97525,0.0046506166,248.2956,247.14087,64.16563,54.750355,25.855307,1.1547276,56.05445
187.467,0.0047704508,254.33652,253.1232,65.656204,55.210403,26.521048,1.2132998,56.484848
192.01721,0.0048918496,260.4582,259.18405,67.16683,55.65927,27.19674,1.2741222,56.90474
196.62732,0.0050147926,266.66147,265.32422,68.696884,56.097034,27.882814,1.337252,57.314182
201.29926,0.005139259,272.9473,271.54456,70.24528,56.523933,28.582943,1.4027468,57.713406
206.0377,0.0052652275,279.31647,277.8458,71.80808,56.939922,29.297596,1.4706649,58.10235
210.82791,0.005392676,285.77014,284.2291,73.40118,57.345184,30.01997,1.5410659,58.48118
215.67978,0.0055215852,292.30826,290.69427,75.01448,57.73971,30.752695,1.6140051,58.84988
220.59526,0.0056519303,298.9314,297.24185,76.64658,58.12343,31.498182,1.6895394,59.20836
225.57611,0.0057836915,305.6411,303.87338,78.29727,58.49662,32.259933,1.7677338,59.55687
230.61986,0.0059168446,312.4366,310.58798,79.968124,58.859035,33.036095,1.848639,59.89518
235.72455,0.0060513695,319.31482,317.3825,81.65796,59.21013,33.821987,1.9322917,60.22272
240.89117,0.0061872415,326.27798,324.25925,83.368065,59.550243,34.619637,2.0187607,60.53981
246.12106,0.006324436,333.32712,331.219,85.09796,59.87959,35.429897,2.1081061,60.84665
251.4112,0.0064629284,340.46277,338.26236,86.85118,60.198055,36.252743,2.2003865,61.14313
256.76108,0.0066026957,347.68564,345.38998,88.6289,60.505913,37.087086,2.2956624,61.429504
262.17096,0.006743712,354.99588,352.6019,90.43093,60.803085,37.93365,2.39399,61.705673
267.65097,0.0068859532,362.3942,359.89877,92.24781,61.089645,38.789562,2.4954295,61.971718
273.19534,0.0070293965,369.88083,367.2808,94.08545,61.36576,39.654453,2.6000388,62.227768
278.79987,0.007174014,377.45477,374.7469,95.94706,61.63098,40.532066,2.7078655,62.47339
284.46616,0.007319783,385.11713,382.29816,97.832,61.88576,41.422874,2.8189738,62.70901
290.19843,0.007466677,392.86877,389.93533,99.73694,62.13008,42.329765,2.9334242,62.934616
296.0012,0.0076146713,400.71054,397.65924,101.658066,62.364212,43.251896,3.051279,63.15045
301.86804,0.0077637425,408.64127,405.4687,103.60065,62.587734,44.18692,3.1725855,63.356102
307.79254,0.007913864,416.66183,413.36447,105.57191,62.801052,45.132256,3.2974052,63.551952
313.78134,0.008065012,424.77197,421.3462,107.56486,63.003872,46.08948,3.4257913,63.73769
319.8389,0.0082171615,432.97284,429.41504,109.57613,63.196644,47.06238,3.557808,63.913784
325.95496,0.008370286,441.2657,437.5722,111.61721,63.37943,48.04186,3.69352,64.08026
332.1282,0.008524359,449.65234,445.81934,113.69112,63.552517,49.03201,3.8329983,64.23741
338.364,0.008679357,458.13025,454.15396,115.78995,63.715675,50.033337,3.9762762,64.385
344.6647,0.008835257,466.70346,462.58002,117.915306,63.869278,51.04796,4.123445,64.523384
351.04025,0.008992031,475.37238,471.0978,120.05756,64.013466,52.076916,4.2745633,64.6527
357.4868,0.00914966,484.1331,479.70343,122.21664,64.14789,53.120087,4.429653,64.77258
364.00116,0.0093081165,492.98932,488.40054,124.399345,64.27295,54.177055,4.5888023,64.883446
370.58356,0.009467379,501.941,497.18893,126.605385,64.38854,55.2473,4.752066,64.98515
377.24152,0.009627417,510.98856,506.06906,128.82755,64.495,56.330364,4.9195,65.07805
383.96396,0.009788212,520.12787,515.03674,131.0728,64.59173,57.429886,5.091122,65.16151
390.74136,0.009949745,529.36,524.093,133.35161,64.6789,58.544888,5.266997,65.23573
397.58035,0.010111984,538.68787,533.2406,135.66026,64.75695,59.67084,5.447202,65.30112
404.48453,0.010274906,548.11194,542.48016,137.9956,64.825966,60.810513,5.6317983,65.35777
411.4571,0.010438486,557.6325,551.8117,140.3546,64.88606,61.96466,5.820839,65.40577
418.50278,0.010602703,567.2503,561.2359,142.73312,64.93733,63.13317,6.0143867,65.44522
425.6381,0.010767535,576.967,570.7545,145.11642,64.98004,64.31826,6.212513,65.47639
432.84662,0.010932956,586.77814,580.3629,147.5163,65.013756,65.51868,6.4152193,65.49881
440.1229,0.011098945,596.68176,590.0592,149.93626,65.038185,66.7337,6.6225376,65.512215
447.46716,0.011265473,606.67944,599.8449,152.3777,65.053856,67.96366,6.834531,65.517105
454.87973,0.011432527,616.7719,609.72064,154.84094,65.06079,69.2087,7.0512614,65.513504
462.3613,0.011600074,626.96014,619.6874,157.32607,65.05918,70.469,7.272784,65.5016
469.8957,0.011768098,637.24493,629.74585,159.85011,65.04919,71.738525,7.499161,65.48155
477.49588,0.011936567,647.6251,639.8947,162.39882,65.03077,73.0275,7.7304206,65.4533
485.1597,0.012105467,658.0989,650.13226,164.97261,65.00372,74.33151,7.9665937,65.41665
492.8904,0.01227477,668.66876,660.46106,167.57065,64.96861,75.649666,8.207756,65.37215
500.69742,0.012444456,679.34094,670.8869,170.1895,64.92592,76.98093,8.454029,65.320274
508.57413,0.012614504,690.1104,681.4051,172.83096,64.875435,78.325935,8.705401,65.260826
516.5207,0.012784894,700.9771,692.0152,175.49449,64.817024,79.687195,8.961918,65.19366
524.53735,0.012955598,711.9416,702.718,178.18066,64.75093,81.06444,9.223629,65.118996
532.6185,0.0131266,723.0045,713.51385,180.89542,64.677315,82.45183,9.490591,65.03701
540.7659,0.013283849,734.16693,724.41437,183.64842,64.59636,83.84967,9.7525625,64.94788
548.98694,0.013435661,745.4306,735.41534,186.42834,64.5083,85.268005,10.015352,64.85183
557.27716,0.013585273,756.79346,746.5122,189.23502,64.41293,86.70234,10.281246,64.74864
565.638,0.013733928,768.2562,757.7051,192.06706,64.31063,88.148705,10.551175,64.63872
574.06915,0.013882115,779.8197,768.9942,194.92502,64.20134,89.60477,10.825547,64.521965
582.5709,0.014029996,791.4865,780.382,197.8111,64.08544,91.079124,11.104553,64.39877
591.1403,0.014177634,803.25604,791.8679,200.72751,63.96301,92.56819,11.38827,64.26922
599.7797,0.014325048,815.1268,803.45,203.67024,63.833965,94.07338,11.676729,64.13321
608.4914,0.014472226,827.09814,815.1281,206.63673,63.69828,95.596375,11.969951,63.99072
617.28235,0.014619157,839.1717,826.9037,209.62128,63.556396,97.139854,12.267982,63.84219
626.1448,0.014765827,851.3471,838.77625,212.63147,63.408127,98.699936,12.570845,63.687412
635.07806,0.014912216,863.6243,850.7458,215.66774,63.253567,100.27669,12.8785515,63.526505
644.09235,0.015058322,876.003,862.8119,218.7195,63.09303,101.875175,13.191136,63.359768
653.17804,0.015204111,888.4807,874.9721,221.79404,62.92622,103.49192,13.508558,63.186886
662.3261,0.015349582,901.0562,887.2254,224.89935,62.753357,105.118935,13.830836,63.0081
671.5521,0.015494713,913.7321,899.5741,228.02199,62.574413,106.766884,14.158015,62.823368
680.8513,0.015639488,926.50757,912.0175,231.16612,62.389782,108.430824,14.490103,62.63307
690.21924,0.01578389,939.3812,924.55414,234.33487,62.199226,110.11173,14.82709,62.43699
699.656,0.01592791,952.3532,937.1842,237.52823,62.002995,111.80963,15.168997,62.235348
709.15564,0.01607153,965.4253,949.90936,240.75374,61.80132,113.52089,15.5158615,62.02839
718.72534,0.01621474,978.5986,962.73083,244.0055,61.594257,115.24715,15.867721,61.816166
728.36664,0.016357519,991.8739,975.64923,247.28265,61.382095,116.99098,16.224596,61.59895
738.07776,0.016499855,1005.25055,988.66394,250.5862,61.164753,118.75247,16.586489,61.376675
747.8543,0.016641734,1018.7285,1001.775,253.92073,60.942554,120.532166,16.95341,61.14967
757.7023,0.016783152,1032.3088,1014.98346,257.28122,60.715363,122.32966,17.325396,60.917763
767.6218,0.016924083,1045.9906,1028.2881,260.66626,60.483524,124.150795,17.70243,60.681324
777.61176,0.017064525,1059.7749,1041.6904,264.07855,60.247,125.98895,18.084555,60.440296
787.67236,0.017204458,1073.6604,1055.1887,267.5164,60.00593,127.8388,18.471745,60.194843
797.80054,0.01734388,1087.6422,1068.7782,270.9776,59.76014,129.69759,18.863935,59.944748
808.0016,0.017482776,1101.7189,1082.4578,274.4563,59.509575,131.57335,19.261106,59.689983
818.27563,0.017621126,1115.8995,1096.2362,277.96057,59.25482,133.46759,19.663406,59.431133
828.61914,0.017758926,1130.1831,1110.1123,281.49316,58.996048,135.37848,20.07084,59.168354
839.02795,0.017896162,1144.5687,1124.0853,285.05743,58.733307,137.30385,20.483387,58.901688
849.5079,0.01803283,1159.0563,1138.1552,288.64722,58.46657,139.24771,20.901064,58.631134
860.04834,0.018168911,1173.6451,1152.3212,292.2729,58.196022,141.21863,21.323854,58.35684
870.65936,0.018304402,1188.3322,1166.5806,295.92114,57.921635,143.20755,21.75171,58.078793
881.34314,0.018439285,1203.1189,1180.9342,299.59106,57.64346,145.21556,22.184652,57.797043
892.0937,0.018573556,1218.006,1195.3833,303.28958,57.36164,147.24542,22.622704,57.511738
902.916,0.01870721,1232.9956,1209.9297,307.01364,57.07647,149.2927,23.065907,57.22315
913.80963,0.018840231,1248.0863,1224.572,310.7625,56.788017,151.35918,23.514236,56.931366
924.7745,0.01897261,1263.2781,1239.3103,314.53586,56.496246,153.44487,23.96768,56.63633
935.81024,0.019104341,1278.5704,1254.1442,318.33392,56.201256,155.54985,24.426245,56.338158
946.91705,0.01923541,1293.9631,1269.0732,322.1561,55.903233,157.67421,24.889914,56.037018
958.09424,0.01936582,1309.4552,1284.0964,326.00226,55.602226,159.818,25.358673,55.73297
969.3421,0.019495547,1325.0472,1299.2147,329.87256,55.29817,161.98123,25.832521,55.42594
980.6602,0.019624598,1340.7382,1314.4268,333.7666,54.99143,164.16405,26.311451,55.1163
992.04944,0.019752964,1356.5284,1329.733,337.6836,54.6819,166.3685,26.795458,54.803925
1003.5079,0.019880628,1372.4161,1345.1317,341.6238,54.369633,168.5941,27.284494,54.488888
1015.03314,0.02000759,1388.4006,1360.6221,345.58896,54.054684,170.83809,27.778553,54.171227
1026.6202,0.020133838,1404.4802,1376.2026,349.58243,53.737305,173.09673,28.277576,53.851196
1038.2709,0.02025937,1420.6545,1391.8729,353.602,53.41726,175.36859,28.781565,53.528564
1049.9926,0.020384172,1436.928,1407.6373,357.6448,53.09506,177.66049,29.290585,53.20383
1061.7859,0.020508246,1453.3019,1423.4971,361.71124,52.770706,179.97273,29.80467,52.877007
1073.6499,0.020631582,1469.7742,1439.4502,365.80035,52.444256,182.30515,30.323763,52.548138
1085.5824,0.02075417,1486.3438,1455.4958,369.91357,52.115837,184.66997,30.84783,52.217354
1097.5879,0.020876013,1503.0046,1471.6279,374.0401,51.785233,187.0542,31.376745,51.884445
1109.6685,0.0209971,1519.757,1487.8466,378.1781,51.45266,189.45815,31.910488,51.54962
1121.8145,0.021117426,1536.6002,1504.1511,382.33664,51.11811,191.88216,32.449043,51.212864
1134.0269,0.021236982,1553.5354,1520.543,386.5162,50.781727,194.32637,32.9924,50.874325
1146.3041,0.021355767,1570.5603,1537.0198,390.71567,50.443623,196.79065,33.54052,50.534115
1158.6455,0.021473773,1587.6783,1553.5848,394.93933,50.10381,199.27486,34.09344,50.19224
1171.04,0.021591002,1604.8853,1570.2341,399.1942,49.762547,201.77686,34.651077,49.848972
1183.4989,0.02170744,1622.1821,1586.9686,403.46973,49.419674,204.29912,35.213417,49.50413
1196.0214,0.021823086,1639.5667,1603.7861,407.76483,49.07531,206.84155,35.780403,49.15785
1208.6083,0.021937938,1657.0399,1620.6877,412.07947,48.729706,209.40431,36.35204,48.810368
1221.2555,0.022051986,1674.6017,1637.6733,416.41785,48.38291,211.98148,36.92829,48.46174
1233.9585,0.022165226,1692.2543,1654.7451,420.7865,48.03491,214.57765,37.509197,48.111942
1246.7329,0.022277659,1710.0049,1671.9099,425.177,47.686096,217.19547,38.094906,47.761383
1259.5768,0.022389283,1727.8502,1689.1649,429.58817,47.33664,219.83493,38.68533,47.410206
1272.489,0.022500092,1745.7896,1706.5092,434.02008,46.986294,222.49644,39.280426,47.058193
1285.4703,0.022610083,1763.822,1723.9419,438.4716,46.63526,225.17949,39.880165,46.70553
1298.5151,0.022719255,1781.9424,1741.4581,442.943,46.283527,227.8821,40.48441,46.352192
1311.5978,0.0228276,1800.1512,1759.0582,447.4604,45.931046,230.59775,41.093136,45.99815
1324.7372,0.022935126,1818.4491,1776.7427,452.00555,45.578064,233.32729,41.70636,45.643642
1337.9402,0.023041822,1836.8341,1794.5099,456.56967,45.224545,236.07787,42.324005,45.288635
1351.2072,0.02314769,1855.3059,1812.36,461.15274,44.870647,238.84932,42.946045,44.93328
1364.5293,0.02325273,1873.8654,1830.293,465.76364,44.516293,241.63873,43.572487,44.5775
1377.9012,0.023356935,1892.5104,1848.3071,470.40598,44.16168,244.44426,44.203243,44.221493
1391.3369,0.023460304,1911.2424,1866.404,475.06717,43.806763,247.27094,44.838333,43.865215
1404.835,0.023562836,1930.0594,1884.5817,479.7468,43.451733,250.11859,45.47767,43.508858
1418.3962,0.023664527,1948.9626,1902.8413,484.44507,43.096592,252.98737,46.121277,43.152416
1432.0195,0.023765389,1967.95,1921.1807,489.16113,42.7414,255.87723,46.769093,42.79596
1445.7008,0.023865404,1987.0204,1939.5995,493.89868,42.386185,258.7869,47.421043,42.4395
1459.4368,0.02396458,2006.1775,1958.1003,498.66354,42.03112,261.71515,48.0772,42.08322
1473.2406,0.024062911,2025.4281,1976.6906,503.44977,41.676376,264.66486,48.737698,41.7273
1487.1066,0.024160402,2044.7649,1995.3625,508.25595,41.321896,267.6354,49.40234,41.371662
1501.0352,0.02425705,2064.185,2014.114,513.0791,40.96768,270.62726,50.071045,41.01631
1515.025,0.024352856,2083.6875,2032.9436,517.9186,40.61377,273.63577,50.743736,40.661293
1529.071,0.024447815,2103.2651,2051.845,522.774,40.260178,276.66437,51.42024,40.306618
1543.182,0.02454194,2122.9294,2070.8289,527.64685,39.907032,279.71527,52.100815,39.95242
1557.3096,0.024635212,2142.6768,2089.8916,532.5819,39.554478,282.78348,52.785297,39.598835
1571.4845,0.024727648,2162.5051,2109.0315,537.547,39.2024,285.87167,53.473667,39.245747
1585.7241,0.024819236,2182.4172,2128.2512,542.5271,38.85097,288.9823,54.165928,38.89333
1600.0293,0.024909986,2202.4097,2147.5479,547.5185,38.500275,292.11566,54.862003,38.54167
1614.3966,0.02499989,2222.4846,2166.9229,552.52606,38.150246,295.27087,55.561867,38.190704
1628.8262,0.025088955,2242.641,2186.3757,557.54974,37.801083,298.4479,56.265522,37.84062
1643.3165,0.025177188,2262.8782,2205.9053,562.5888,37.45266,301.6466,56.97291,37.491302
1657.8676,0.025264574,2283.1946,2225.5107,567.6433,37.10511,304.8669,57.68394,37.14287
1672.4661,0.025351126,2303.5906,2245.1921,572.726,36.758476,308.10706,58.398613,36.795376
1687.09,0.025436837,2324.0627,2264.9458,577.8561,36.412746,311.3637,59.1168,36.44881
1701.7675,0.025521718,2344.607,2284.7688,583.0012,36.067936,314.64108,59.8384,36.103176
1716.5089,0.025605768,2365.2224,2304.659,588.1499,35.724075,317.946,60.563335,35.75851
1731.309,0.025688982,2385.9148,2324.6228,593.31396,35.381245,321.27264,61.291725,35.4149
1746.1652,0.025771363,2406.681,2344.6575,598.4924,35.039562,324.62045,62.02345,35.072456
1761.0775,0.025852915,2427.5212,2364.7627,603.6852,34.69897,327.98886,62.7585,34.731113
1776.0394,0.025933642,2448.4336,2384.937,608.8975,34.359608,331.37445,63.496807,34.39102
1791.0571,0.02601354,2469.4185,2405.1802,614.1231,34.021397,334.78113,64.23832,34.052097
1806.1296,0.026092619,2490.4749,2425.4917,619.36206,33.684433,338.20892,64.98301,33.714436
1821.2559,0.026170874,2511.6025,2445.8718,624.61597,33.348778,341.65652,65.730835,33.378094
1836.4282,0.02624831,2532.799,2466.3176,629.8892,33.01442,345.11963,66.4817,33.043076
1851.6538,0.02632493,2554.0645,2486.8289,635.175,32.681362,348.61102,67.235565,32.709362
1866.9303,0.026400732,2575.3887,2507.3965,640.4663,32.349575,352.1209,67.99215,32.376938
1882.2418,0.02647572,2596.779,2528.0273,645.7855,32.01919,355.64713,68.751595,32.04594
1897.6006,0.026549902,2618.2368,2548.7231,651.1225,31.690273,359.19263,69.51393,31.716412
1913.0078,0.026623271,2639.7598,2569.4807,656.4729,31.362774,362.75677,70.27904,31.388313
1928.4327,0.026695836,2661.346,2590.2988,661.8663,31.036777,366.3171,71.04685,31.061735
1943.8976,0.026767602,2683.0007,2611.183,667.2856,30.712374,369.90933,71.8175,30.736767
1959.4205,0.026838565,2704.7285,2632.1377,672.7171,30.389656,373.52322,72.591034,30.413496
1974.9973,0.026908735,2726.5251,2653.1577,678.16034,30.068592,377.16162,73.36735,30.091888
1990.62,0.026978107,2748.3875,2674.2415,683.6213,29.749144,380.82364,74.14629,29.771912
2006.2896,0.027046692,2770.3113,2695.3838,689.0941,29.43134,384.50534,74.92776,29.453585
2022.009,0.027114486,2792.2988,2716.587,694.5779,29.115253,388.20758,75.711754,29.136995
2037.7723,0.027181502,2814.3481,2737.85,700.0776,28.800829,391.93057,76.49821,28.822077
2053.566,0.027247736,2836.4573,2759.1702,705.6041,28.48808,395.6687,77.28704,28.508842
2069.3906,0.027313191,2858.625,2780.547,711.1565,28.177088,399.41977,78.07817,28.19738
2085.24,0.027377876,2880.8464,2801.975,716.73505,27.86783,403.17685,78.87145,27.887663
2101.1423,0.027441785,2903.1345,2823.4673,722.3251,27.560453,406.95755,79.6672,27.579832
2117.0903,0.027504928,2925.4873,2845.022,727.93176,27.254923,410.76175,80.46531,27.27386
2133.073,0.027567308,2947.9023,2866.6365,733.56354,26.95134,414.58096,81.26574,26.969849
2149.0908,0.027628936,2970.3784,2888.3098,739.219,26.649605,418.4157,82.06839,26.667694
2165.1565,0.027689805,2992.914,2910.041,744.8842,26.349743,422.27042,82.87321,26.367422
2181.2695,0.02774992,3015.5095,2931.8293,750.5598,26.051825,426.145,83.680145,26.0691
2197.4272,0.027809294,3038.1602,2953.6711,756.2436,25.755781,430.03882,84.48909,25.772661
2213.63,0.027867923,3060.867,2975.567,761.9373,25.46169,433.95184,85.3,25.478188
2229.8774,0.027925812,3083.6306,2997.518,767.6406,25.169537,437.88437,86.11289,25.185658
2246.1682,0.027982969,3106.4478,3019.5203,773.3517,24.879354,441.8358,86.92763,24.89511
