con,Omega,ygross,ynet,inv,Eind,scc,Dam,Emissions
77.148994,0.0028556,105.17594,104.8756,27.726606,36.845238,10.84652,0.3003404,39.445236
79.692276,0.0022726431,108.715614,108.46854,28.776266,37.510426,11.115627,0.24707177,40.051308
82.33749,0.0021115942,112.374115,112.13682,29.799337,38.18697,11.422695,0.23728853,40.67008
85.07571,0.002097444,116.14591,115.9023,30.826597,38.871788,11.761391,0.24360953,41.298435
87.8926,0.0021390212,120.025856,119.76912,31.876524,39.562237,12.116091,0.25673786,41.933712
90.803116,0.0022029718,124.00858,123.7354,32.932285,40.255585,12.489301,0.27318743,42.57314
93.8022,0.0022765642,128.0921,127.8005,33.99829,40.95046,12.8813095,0.2916099,43.215313
96.87755,0.0023548712,132.27602,131.96454,35.086983,41.646004,13.286035,0.311493,43.85936
100.031105,0.0024359939,136.55756,136.22491,36.1938,42.340565,13.703306,0.3326534,44.503597
103.25762,0.002519217,140.93552,140.58046,37.322838,43.03312,14.131757,0.35504714,45.146973
106.56581,0.0026042848,145.40894,145.03024,38.464436,43.722965,14.574027,0.3786863,45.788754
109.94498,0.0026911201,149.9777,149.5741,39.629128,44.409245,15.0273485,0.40360802,46.42806
113.39523,0.0027797092,154.63995,154.2101,40.814857,45.091045,15.492927,0.4298541,47.063957
116.91664,0.002870065,159.39381,158.93634,42.019703,45.76734,15.974374,0.45747063,47.695396
120.51037,0.0029622023,164.2398,163.7533,43.242916,46.437828,16.468006,0.48651153,48.32205
124.1745,0.0030561376,169.17928,168.66223,44.487743,47.10229,16.973629,0.5170351,48.94366
127.91184,0.0031518834,174.21063,173.66156,45.749706,47.760124,17.491592,0.54909164,49.55963
131.71967,0.00324945,179.33284,178.7501,47.030434,48.410397,18.021292,0.58273304,50.168983
135.59709,0.0033488458,184.54413,183.92613,48.32904,49.05255,18.562443,0.6180099,50.771156
139.54663,0.0034500726,189.84488,189.18988,49.64326,49.686104,19.116476,0.65497863,51.36563
143.55931,0.0035531314,195.23737,194.54367,50.984367,50.31151,19.680862,0.693704,51.952847
147.63905,0.0036580176,200.7202,199.98596,52.346916,50.9281,20.258926,0.734238,52.532116
151.78323,0.0037647304,206.293,205.51634,53.73311,51.535427,20.850126,0.7766375,53.102974
155.99783,0.0038732635,211.95757,211.1366,55.13877,52.13375,21.453207,0.8209675,53.665653
160.2823,0.0039836084,217.71436,216.84705,56.56476,52.722733,22.06964,0.8672887,54.219803
164.63443,0.0040957546,223.5625,222.64685,58.012424,53.302193,22.698805,0.9156571,54.76523
169.05658,0.004209694,229.50145,228.53532,59.47874,53.87149,23.339777,0.96613085,55.301254
173.55212,0.0043254113,235.53224,234.51347,60.96135,54.430935,23.996813,1.0187738,55.828194
178.11623,0.0044428953,241.65477,240.58115,62.464905,54.980015,24.665712,1.0736468,56.3455
182.74374,0.00456213,247.87021,246.73938,63.995644,55.518997,25.345215,1.1308162,56.85344
187.43976,0.0046831,254.17796,252.98761,65.54786,56.04744,26.036186,1.1903409,57.351536
192.20502,0.004805789,260.57843,259.32614,67.12112,56.56538,26.739208,1.2522849,57.839825
197.03685,0.0049301777,267.07187,265.75516,68.71831,57.072598,27.454275,1.3167117,58.31807
201.93933,0.005056248,273.65897,272.2753,70.33597,57.569096,28.178642,1.3836877,58.786243
206.91441,0.0051839827,280.3421,278.88882,71.97441,58.0553,28.913794,1.4532886,59.24478
211.95367,0.0053133564,287.1198,285.59424,73.640564,58.530663,29.661528,1.5255699,59.693096
217.0589,0.005444354,293.99365,292.39304,75.33414,58.995384,30.419304,1.6006055,60.131374
222.23767,0.005576952,300.96387,299.2854,77.04773,59.449448,31.189274,1.678461,60.55962
227.48761,0.005711129,308.03085,306.27167,78.78405,59.89271,31.972181,1.759204,60.97764
232.8083,0.0058468645,315.19522,313.35233,80.544014,60.325176,32.767677,1.8429037,61.38543
238.20229,0.0059841364,322.45724,320.52762,82.325325,60.746777,33.57607,1.929628,61.782932
243.66794,0.006122921,329.81796,327.79846,84.13055,61.15772,34.39745,2.019449,62.170307
249.19872,0.0062631955,337.27878,335.16632,85.96762,61.558044,35.231487,2.112443,62.547607
254.79509,0.006404936,344.83966,342.63098,87.83588,61.947727,36.075085,2.2086756,62.914795
260.46524,0.0065481197,352.5019,350.19366,89.728424,62.32671,36.930584,2.3082244,63.27179
266.21042,0.006692725,360.26514,357.854,91.643555,62.69507,37.7993,2.4111555,63.618656
272.02896,0.006838725,368.13077,365.6132,93.58424,63.05281,38.68407,2.517545,63.955395
277.9243,0.006986096,376.1008,373.4733,95.549034,63.400204,39.584713,2.627476,64.282265
283.89746,0.007134815,384.1753,381.43427,97.53683,63.737305,40.498833,2.7410197,64.59931
289.9417,0.007284858,392.3531,389.49484,99.55309,64.06359,41.423935,2.8582363,64.90599
296.06216,0.007436201,400.6337,397.65454,101.592354,64.379166,42.362907,2.9791925,65.202415
302.25943,0.0075888173,409.01846,405.9145,103.65507,64.68407,43.31468,3.103966,65.4886
308.5321,0.0077426843,417.50818,414.2755,105.74343,64.9785,44.281277,3.2326338,65.76474
314.87228,0.007897773,426.1026,422.7373,107.86503,65.26212,45.259415,3.3652613,66.03049
321.28894,0.008054059,434.80154,431.29962,110.01071,65.53514,46.24889,3.5019176,66.28604
327.7846,0.008211516,443.6067,439.964,112.17939,65.79751,47.25894,3.6426833,66.531334
334.3599,0.00837012,452.52274,448.73505,114.37514,66.05013,48.284286,3.7876694,66.76727
341.01923,0.008529843,461.5479,457.61102,116.59178,66.29259,49.327183,3.9369314,66.993416
347.7604,0.00869066,470.67737,466.58685,118.82647,66.52414,50.390366,4.090497,67.20904
354.5799,0.008852549,479.91327,475.6648,121.08489,66.74521,51.46703,4.2484555,67.41453
361.4782,0.009015478,489.25668,484.84576,123.36758,66.95573,52.55411,4.410883,67.60983
368.44952,0.009179427,498.7072,494.12936,125.67984,67.15572,53.657413,4.577847,67.79496
375.4895,0.009344365,508.26505,503.5157,128.02617,67.3454,54.772213,4.749415,67.970085
382.6165,0.009510267,517.9318,513.0062,130.38971,67.5248,55.903065,4.9256697,68.13529
389.81122,0.009677107,527.7083,522.6016,132.79042,67.693954,57.046795,5.10669,68.29056
397.07864,0.009844856,537.59393,532.30133,135.22272,67.85303,58.199398,5.292535,68.43608
404.42993,0.01001349,547.5918,542.1085,137.67857,68.00231,59.365757,5.483305,68.5721
411.8652,0.010182985,557.7002,552.0211,140.15591,68.141594,60.549717,5.6790524,68.698425
419.38153,0.010353311,567.9211,562.0412,142.65965,68.27114,61.747494,5.8798637,68.815315
426.97867,0.010524446,578.255,572.1692,145.19054,68.39104,62.968266,6.0858135,68.92283
434.66043,0.010696365,588.6976,582.40063,147.74023,68.500786,64.206825,6.296924,69.02049
442.42194,0.010869038,599.2511,592.73785,150.31589,68.6007,65.4565,6.5132833,69.10859
450.2463,0.011042447,609.9152,603.18024,152.93396,68.69079,66.71671,6.7349567,69.187126
458.14594,0.011216559,620.6959,613.7338,155.58792,68.771774,67.99256,6.962072,69.25683
466.1304,0.011391356,631.5924,624.3977,158.26732,68.843445,69.28531,7.1946936,69.317474
474.19122,0.011566808,642.606,635.1731,160.9819,68.90623,70.59584,7.4329004,69.36948
482.33264,0.011742894,653.73676,646.06,163.72737,68.96006,71.92397,7.6767616,69.41277
490.5645,0.011919589,664.98553,657.0592,166.49466,69.00505,73.27211,7.926354,69.44748
498.87604,0.01209687,676.3498,668.1681,169.292,69.04096,74.63885,8.181716,69.47332
507.2718,0.012274714,687.82623,679.3833,172.11151,69.06752,76.022644,8.442871,69.49005
515.7518,0.012453099,699.4193,690.7094,174.95764,69.08515,77.42652,8.709938,69.49808
524.31836,0.012632,711.1307,702.1477,177.82932,69.09428,78.84981,8.983004,69.49781
532.96783,0.0128113935,722.96045,713.6983,180.73045,69.09472,80.29393,9.262131,69.48908
541.7,0.012991259,734.90717,725.35974,183.65977,69.08665,81.751656,9.547369,69.47204
550.52985,0.013171565,746.97034,737.13153,186.60168,69.069855,83.22972,9.838768,69.44649
559.4509,0.013352298,759.1509,749.0145,189.56366,69.04461,84.730225,10.13641,69.41268
568.4478,0.013533429,771.449,761.00854,192.56076,69.01098,86.24103,10.44035,69.37067
577.51654,0.013700685,783.86383,773.12445,195.6079,68.968994,87.76991,10.739472,69.3205
586.67017,0.013862503,796.3976,785.35754,198.68735,68.9189,89.3162,11.040063,69.26243
595.90485,0.014022175,809.05066,797.706,201.80112,68.8607,90.87498,11.34465,69.19641
605.22253,0.014180958,821.8201,810.16595,204.94336,68.79447,92.45075,11.654196,69.12255
614.6258,0.014339341,834.7109,822.7417,208.11592,68.72044,94.046585,11.969205,69.04106
624.1066,0.014497493,847.72437,835.43445,211.32779,68.63893,95.66486,12.289879,68.95226
633.67053,0.0146554755,860.8631,848.2468,214.57623,68.55023,97.29676,12.616358,68.85644
643.3209,0.014813295,874.1244,861.1758,217.8548,68.45418,98.94649,12.948662,68.75342
653.0587,0.014970949,887.50745,874.22064,221.16185,68.35065,100.615585,13.286829,68.64309
662.88763,0.015128428,901.01324,887.38226,224.49466,68.24009,102.3044,13.630914,68.52588
672.8069,0.015285708,914.6403,900.65936,227.8525,68.122185,104.01749,13.980926,68.40148
682.81396,0.015442773,928.38635,914.0495,231.23557,67.99687,105.749664,14.33686,68.26981
692.9203,0.015599603,942.25446,927.55566,234.63539,67.86471,107.50294,14.698795,68.13145
703.10455,0.015756188,956.24426,941.17737,238.07285,67.72553,109.273796,15.066764,67.9862
713.36646,0.015912507,970.3592,954.9182,241.55179,67.57991,111.05807,15.440846,67.83465
723.7099,0.016068539,984.59503,968.7741,245.06418,67.42728,112.85826,15.821004,67.67622
734.14294,0.016224269,998.9516,982.74426,248.60132,67.26806,114.68327,16.207258,67.51135
744.66394,0.01637968,1013.43,996.8304,252.1664,67.1022,116.52908,16.599659,67.339966
755.2727,0.01653476,1028.0306,1011.03253,255.75978,66.929985,118.3948,16.998241,67.16234
765.9706,0.016689489,1042.7552,1025.3522,259.38165,66.75158,120.28081,17.403053,66.978645
776.7577,0.01684385,1057.6038,1039.7896,263.03183,66.56694,122.18717,17.81412,66.78885
787.62683,0.016997822,1072.576,1054.3447,266.71793,66.37634,124.11937,18.231457,66.5932
798.5824,0.0171514,1087.6703,1069.0153,270.43283,66.1796,126.0722,18.655067,66.39153
809.62445,0.017304568,1102.8867,1083.8016,274.1772,65.97708,128.04388,19.084978,66.1842
820.75366,0.017457308,1118.2261,1098.7048,277.95117,65.76859,130.03484,19.521217,65.97099
831.9452,0.017609607,1133.6877,1113.724,281.7788,65.554535,132.04402,19.963797,65.752335
843.21814,0.017761447,1149.2749,1128.8619,285.64392,65.33497,134.06699,20.412783,65.528275
854.57825,0.017912814,1164.9875,1144.1193,289.54108,65.110115,136.10486,20.868206,65.29902
866.0426,0.018063702,1180.826,1159.496,293.45337,64.88009,138.16672,21.33009,65.064705
877.60895,0.018214086,1196.7878,1174.9894,297.38046,64.64474,140.2567,21.798397,64.82515
889.2672,0.018363962,1212.8693,1190.5962,301.3289,64.40397,142.37035,22.273083,64.58028
901.01324,0.018513313,1229.0741,1206.32,305.30664,64.15821,144.51064,22.754234,64.33051
912.8376,0.01866213,1245.4031,1222.1613,309.3237,63.9076,146.67284,23.241877,64.07598
924.741,0.018810395,1261.8517,1238.1157,313.3746,63.651913,148.84969,23.73593,63.81647
936.7228,0.018958103,1278.4192,1254.1829,317.46,63.391323,151.04295,24.236403,63.55214
948.80756,0.019105237,1295.1119,1270.3685,321.56097,63.126293,153.25357,24.74342,63.283443
960.9682,0.019251784,1311.9324,1286.6754,325.70724,62.85689,155.4875,25.257038,63.01047
973.2045,0.019397732,1328.8756,1303.0983,329.89377,62.583008,157.7447,25.77717,62.733097
985.52655,0.019543076,1345.9387,1319.6349,334.10834,62.304714,160.02353,26.303783,62.451393
997.9365,0.0196878,1363.1222,1336.2853,338.34882,62.02216,162.32454,26.836874,62.165504
1010.4288,0.019831894,1380.4264,1353.05,342.62128,61.735348,164.63904,27.37647,61.87543
1023.00287,0.019975351,1397.8594,1369.9368,346.93384,61.44476,166.97519,27.922733,61.58167
1035.6635,0.020118153,1415.4143,1386.9387,351.27533,61.15029,169.33592,28.47552,61.284084
1048.4103,0.020260297,1433.0894,1404.0546,355.64432,60.85199,171.72087,29.034817,60.982735
1061.2323,0.020401765,1450.8846,1421.2839,360.0516,60.549732,174.1245,29.600605,60.677513
1074.1377,0.020542558,1468.7969,1438.624,364.48624,60.243855,176.54974,30.172844,60.368725
1087.1318,0.020682666,1486.831,1456.0793,368.9476,59.934414,178.99783,30.75163,60.056454
1100.2164,0.020822069,1504.9886,1473.6516,373.43524,59.62162,181.46936,31.336977,59.740875
1113.3931,0.020960767,1523.2712,1491.3424,377.94937,59.305607,183.96478,31.928934,59.42215
1126.6559,0.021098748,1541.6763,1509.1488,382.49292,58.986603,186.48346,32.52744,59.100494
1139.9988,0.02123601,1560.2036,1527.0712,387.07233,58.664375,189.02528,33.1325,58.77568
1153.4293,0.021372536,1578.8517,1545.1075,391.67825,58.339203,191.59,33.74407,58.44797
1166.9476,0.021508323,1597.6208,1563.2585,396.31097,58.01106,194.1774,34.362144,58.11736
1180.553,0.02164336,1616.5094,1581.5228,400.96976,57.680042,196.78827,34.986694,57.783924
1194.2445,0.021777647,1635.5161,1599.8984,405.65387,57.346275,199.42252,35.617687,57.447796
1208.0273,0.02191117,1654.6427,1618.3875,410.3601,57.009846,202.09076,36.255157,57.10906
1221.8906,0.022043927,1673.8815,1636.9825,415.09198,56.670677,204.78204,36.898922,56.767635
1235.8348,0.022175908,1693.2334,1655.6846,419.8496,56.32883,207.4962,37.54899,56.423584
1249.8617,0.022307107,1712.6995,1674.4941,424.63242,55.984463,210.23349,38.20537,56.07706
1263.9751,0.022437515,1732.2783,1693.4103,429.43524,55.63772,212.99278,38.868023,55.72821
1278.1813,0.022567129,1751.9712,1712.4342,434.2529,55.288548,215.77185,39.536957,55.37698
1292.4711,0.022695934,1771.7759,1731.5636,439.09256,54.93731,218.57016,40.21211,55.023735
1306.7793,0.022823934,1791.6976,1750.8041,444.02472,54.58395,221.37108,40.893585,54.668407
1321.1637,0.022951119,1811.7375,1770.156,448.99243,54.22871,224.19528,41.5814,54.31125
1335.6389,0.02307748,1831.8995,1789.6238,453.98495,53.87192,227.04471,42.275623,53.952583
1350.1978,0.023203017,1852.1814,1809.2053,459.00745,53.51358,229.91553,42.9762,53.592407
1364.8519,0.023327723,1872.5773,1828.8943,464.04242,53.153408,232.81886,43.68297,53.230442
1379.5975,0.023451598,1893.0988,1848.7025,469.10507,52.791958,235.74344,44.396194,52.867245
1394.4093,0.023574632,1913.7373,1868.6216,474.21228,52.429245,238.69633,45.115654,52.502815
1409.2894,0.023696825,1934.4901,1888.6488,479.35944,52.065002,241.67117,45.841278,52.136898
1424.2535,0.023818176,1955.3578,1908.7848,484.53125,51.699444,244.67061,46.573055,51.76971
1439.3009,0.02393868,1976.3386,1929.0276,489.72668,51.332703,247.69467,47.310936,51.401367
1454.4353,0.024058327,1997.434,1949.3789,494.94366,50.964737,250.74463,48.054924,51.031837
1469.6592,0.024177115,2018.643,1969.8381,500.179,50.595776,253.82005,48.804962,50.66135
1484.9698,0.024295049,2039.9633,1990.4022,505.43246,50.225773,256.92258,49.561005,50.289864
1500.3375,0.024412114,2061.3962,2011.0732,510.73575,49.85495,260.03876,50.32304,49.91758
1515.7816,0.024528319,2082.9412,2031.85,516.06836,49.483177,263.18884,51.091045,49.544384
1531.3066,0.024643654,2104.5957,2052.7307,521.42413,49.110687,266.35452,51.86493,49.1705
1546.9058,0.024758117,2126.3562,2073.7117,526.8061,48.737293,269.55084,52.644577,48.79575
1562.583,0.024871701,2148.2263,2094.7964,532.2133,48.363354,272.78058,53.430046,48.420483
1578.3372,0.024984416,2170.2131,2115.9915,537.65436,47.989014,276.0353,54.221508,48.044838
1594.1322,0.025096247,2192.3125,2137.294,543.16174,47.614273,279.30817,55.018818,47.66883
1609.994,0.025207195,2214.5173,2158.6956,548.7015,47.239044,282.60446,55.821774,47.292362
1625.9347,0.025317261,2236.834,2180.2034,554.26874,46.863564,285.92636,56.63051,46.91567
1641.9612,0.025426444,2259.264,2201.8188,559.8576,46.487915,289.27527,57.445045,46.538834
1658.0715,0.02553474,2281.8052,2223.5398,565.46826,46.112156,292.65076,58.2653,46.16192
1674.2645,0.025642157,2304.4563,2245.365,571.1005,45.736317,296.05258,59.091225,45.784946
1690.529,0.025748681,2327.215,2267.2927,576.76355,45.36044,299.4691,59.922726,45.407967
1706.8646,0.025854314,2350.081,2289.3213,582.4566,44.98466,302.9127,60.75973,45.031105
1723.2683,0.025959058,2373.055,2311.4526,588.1844,44.608913,306.37415,61.60227,44.654305
1739.7589,0.026062915,2396.1409,2333.6904,593.9316,44.233505,309.86353,62.450417,44.27786
1756.3333,0.026165882,2419.3354,2356.0312,599.69806,43.85828,313.38013,63.304043,43.901627
1772.9718,0.026267955,2442.6396,2378.4766,605.50476,43.4834,316.92328,64.16315,43.52576
1789.6819,0.026369136,2466.0415,2401.0142,611.33203,43.10881,320.4912,65.027374,43.150208
1806.4573,0.026469434,2489.5417,2423.645,617.18774,42.734432,324.08282,65.89676,42.77489
1823.3143,0.026568836,2513.143,2446.3718,623.0575,42.36055,327.69727,66.771286,42.40009
1840.2478,0.026667349,2536.844,2469.193,628.94525,41.987038,331.33673,67.6509,42.025677
1857.2802,0.02676497,2560.6455,2492.1099,634.82965,41.61408,335.00836,68.5356,41.651836
1874.3807,0.026861705,2584.5464,2515.121,640.7403,41.241703,338.703,69.425316,41.278603
1891.5415,0.026957538,2608.5386,2538.219,646.6773,40.869835,342.42053,70.31978,40.905895
1908.7723,0.027052494,2632.626,2561.4067,652.63416,40.498634,346.16376,71.21909,40.533875
1926.064,0.027146557,2656.8027,2584.6797,658.6158,40.12808,349.92166,72.123055,40.162514
1943.4066,0.02723973,2681.076,2608.0442,664.6376,39.758247,353.69897,73.031784,39.79191
1960.7915,0.027332017,2705.4446,2631.4995,670.70795,39.389355,357.49368,73.94526,39.422245
1978.238,0.027423413,2729.906,2655.0427,676.8047,39.02126,361.31088,74.86334,39.053402
1995.7511,0.027513927,2754.4636,2678.6775,682.9265,38.654213,365.15158,75.78611,38.68563
2013.3375,0.027603555,2779.1165,2702.4028,689.0653,38.28813,369.01837,76.71349,38.31883
2030.9962,0.027692296,2803.8633,2726.2178,695.2217,37.92311,372.9109,77.64541,37.95311
2048.7285,0.027780164,2828.7065,2750.1245,701.3961,37.55925,376.82962,78.58193,37.588566
2066.5293,0.027867146,2853.639,2774.1162,707.5869,37.196495,380.77338,79.52277,37.225143
2084.394,0.027953247,2878.6646,2798.1965,713.80237,36.83489,384.74002,80.468025,36.86289
2102.3257,0.02803848,2903.784,2822.3665,720.04083,36.474567,388.73636,81.417694,36.50193
2120.322,0.028122837,2928.99,2846.6184,726.2962,36.115467,392.7606,82.371506,36.14221
2138.3816,0.028206324,2954.2803,2870.9507,732.5692,35.757633,396.8089,83.32939,35.78377
2156.5034,0.028288944,2979.6543,2895.3633,738.85974,35.401035,400.8814,84.29128,35.426575
2174.71,0.028370688,3005.1113,2919.8545,745.1444,35.04579,404.99466,85.25707,35.070747
2192.9893,0.02845157,3030.6497,2944.4229,751.43353,34.69192,409.1407,86.22674,34.71631
2211.331,0.02853159,3056.27,2969.0698,757.73865,34.339485,413.31158,87.20024,34.363327
2229.7236,0.028610751,3081.9697,2993.7925,764.0688,33.9885,417.50595,88.177475,34.011795
2248.1091,0.028689058,3107.7485,3018.5906,770.48114,33.63895,421.70258,89.15839,33.66172
2266.501,0.028766504,3133.6165,3043.4734,776.9722,33.29104,425.9041,90.14319,33.313282
2284.9778,0.028843101,3159.5835,3068.4514,783.47345,32.944923,430.13815,91.13218,32.966667
2303.5276,0.028918855,3185.6438,3093.5186,789.99097,32.600513,434.39957,92.125175,32.621758
2322.148,0.028993757,3211.7913,3118.6692,796.52136,32.257767,438.6874,93.12191,32.278534
2340.8372,0.029067822,3238.0256,3143.9033,803.0663,31.916786,443.003,94.12235,31.937078
2359.5881,0.029141046,3264.3394,3169.2131,809.6246,31.57754,447.35074,95.12626,31.59737
2378.3735,0.029213436,3290.7278,3194.5942,816.22095,31.240013,451.7228,96.13346,31.259392
2397.2136,0.029284993,3317.195,3220.051,822.8374,30.904219,456.11987,97.14404,30.923159
2416.1133,0.02935572,3343.7412,3245.5835,829.4701,30.570318,460.53946,98.157936,30.588827
2435.06,0.029425632,3370.3633,3271.188,836.12805,30.238186,464.96997,99.175064,30.256273
2454.0654,0.029494718,3397.0593,3296.864,842.7985,29.907856,469.42413,100.1953,29.925533
2473.1526,0.029562982,3423.8298,3322.6108,849.4582,29.57942,473.90335,101.21861,29.596697
2492.3098,0.029630443,3450.6729,3348.428,856.11816,29.252827,478.40707,102.244965,29.269709
2511.526,0.02969709,3477.5898,3374.3154,862.78973,28.92818,482.9355,103.2743,28.94468
2530.8008,0.02976293,3504.581,3400.2744,869.4736,28.605457,487.48816,104.306595,28.62158
2550.1301,0.02982797,3531.6423,3426.3008,876.17053,28.28471,492.0645,105.34172,28.300468
2569.5085,0.029892216,3558.7705,3452.391,882.88226,27.96593,496.66452,106.37954,27.98133
