con,Omega,ygross,ynet,inv,Eind,scc,Dam,Emissions
77.03462,0.0017051001,105.17594,104.996605,27.860079,29.891592,37.68081,0.17933552,32.49159
79.57849,0.0018181846,108.66398,108.466415,28.777653,30.233356,38.73955,0.19757116,32.77424
82.1917,0.001935854,112.24745,112.03016,29.71948,30.574667,39.863625,0.2172947,33.05778
84.87584,0.0020581514,115.92268,115.6841,30.680197,30.913065,41.0542,0.23858643,33.339714
87.63355,0.002185118,119.68968,119.42815,31.656902,31.244736,42.310623,0.26153606,33.616207
90.457275,0.0023167918,123.54861,123.26237,32.65723,31.56882,43.63277,0.28623638,33.886375
93.352974,0.0024532094,127.498,127.18522,33.673687,31.88513,45.018932,0.31277925,34.149982
96.31321,0.0025944032,131.53578,131.19453,34.711384,32.19005,46.46547,0.3412569,34.403408
99.34326,0.0027404046,135.66124,135.28947,35.764023,32.479362,47.975952,0.37176672,34.6424
102.438156,0.0028912395,139.87308,139.46866,36.8353,32.755207,49.547028,0.40440655,34.869057
105.5968,0.0030469305,144.1701,143.73083,37.92503,33.01742,51.178814,0.43927634,35.08321
108.819534,0.0032074968,148.55345,148.07695,39.033913,33.267456,52.870716,0.47648472,35.286274
112.102,0.0033729533,153.0224,152.50627,40.164963,33.494972,54.616806,0.5161374,35.467884
115.447525,0.0035433117,157.5759,157.01755,41.313187,33.69291,56.427483,0.55834055,35.62096
118.85255,0.0037185773,162.21233,161.60912,42.48104,33.871872,58.297318,0.6031991,35.756092
122.31535,0.0038987491,166.9315,166.28067,43.669926,34.033054,60.224834,0.65082407,35.874424
125.83632,0.0040838206,171.73642,171.03506,44.88243,34.17864,62.208313,0.70134073,35.978146
129.42018,0.00427378,176.62344,175.8686,46.109787,34.303234,64.25717,0.7548498,36.06182
133.05544,0.0044686124,181.5913,180.77983,47.36214,34.408688,66.361145,0.81146103,36.127293
136.76083,0.0046682977,186.64151,185.77022,48.6224,34.498566,68.53296,0.87129813,36.178093
140.5176,0.00487281,191.7751,190.84062,49.909714,34.56694,70.75886,0.93448365,36.20828
144.3318,0.005082118,196.99333,195.99219,51.218983,34.612446,73.04375,1.0011433,36.21646
148.20892,0.0052961847,202.2947,201.22331,52.543186,34.636154,75.394585,1.0713902,36.2037
152.13739,0.0055149705,207.67732,206.53198,53.891895,34.639378,77.80145,1.1453342,36.17128
156.11993,0.0057384265,213.14293,211.91982,55.264156,34.62372,80.270195,1.2231051,36.12079
160.16502,0.005966501,218.6935,217.38866,56.652744,34.58473,82.8023,1.3048348,36.04776
164.26585,0.006199136,224.32681,222.93617,58.06216,34.52224,85.397224,1.3906325,35.952003
168.42752,0.006436267,230.04207,228.56143,59.486965,34.44401,88.05989,1.4806122,35.841267
172.63914,0.006677824,235.84004,234.26518,60.93799,34.341835,90.78283,1.5748984,35.707325
176.9022,0.0069237347,241.72328,240.04965,62.41647,34.221878,93.56148,1.6736279,35.556316
181.22356,0.0071739205,247.69276,245.91583,63.9164,34.083706,96.412544,1.7769282,35.387806
185.5957,0.007428296,253.74689,251.862,65.44354,33.927677,99.32615,1.8849071,35.202126
190.03528,0.0076867715,259.8852,257.88748,66.98043,33.752243,102.31562,1.997678,34.997707
194.52763,0.007949256,266.1077,263.99234,68.54109,33.55222,105.36994,2.1153584,34.769363
199.07745,0.008215653,272.41483,270.17676,70.12122,33.32946,108.49244,2.2380655,34.518932
203.6797,0.0084858565,278.80832,276.44238,71.72713,33.082867,111.6837,2.3659275,34.245296
208.3377,0.00875976,285.28903,282.78998,73.35627,32.81361,114.945465,2.4990637,33.949608
213.05653,0.00903725,291.8561,289.21854,75.00269,32.523075,118.28116,2.6375763,33.633244
217.83357,0.0093182055,298.51025,295.72867,76.66958,32.212395,121.69376,2.78158,33.29732
222.66162,0.009602503,305.25195,302.32077,78.36388,31.876736,125.17718,2.9311829,32.936993
227.54608,0.009890017,312.08005,308.9936,80.079155,31.519245,128.72612,3.0864768,32.555393
232.48448,0.010180609,318.99484,315.7473,81.818245,31.141994,132.34723,3.247562,32.154583
237.48314,0.0104741445,325.9983,322.58374,83.57656,30.745567,136.04643,3.4145532,31.735132
242.53365,0.01077048,333.08923,329.50168,85.361404,30.331223,139.821,3.587531,31.298286
247.63857,0.011069473,340.26694,336.50037,87.16987,29.902262,143.666,3.7665756,30.84734
252.80374,0.011370968,347.5354,343.58356,88.99957,29.457329,147.5947,3.951814,30.380917
258.02344,0.011674818,354.89758,350.75424,90.85783,28.98877,151.59467,4.143365,29.891357
263.29837,0.011980865,362.35376,358.01245,92.7444,28.500227,155.68399,4.3413115,29.382292
268.6204,0.01228895,369.8971,365.35147,94.66005,27.98702,159.82596,4.545647,28.84903
273.99762,0.012598915,377.53317,372.77667,96.60224,27.453093,164.05602,4.7565084,28.295502
279.44147,0.012910586,385.2613,380.2873,98.55905,26.900229,168.37866,4.973949,27.723484
284.94745,0.0132238,393.08002,387.882,100.533714,26.330006,172.78816,5.1980114,27.13454
290.5163,0.013538375,400.99023,395.5615,102.52631,25.743158,177.28624,5.428756,26.529402
296.12906,0.013854142,408.99286,403.32663,104.556755,25.141905,181.84906,5.6662455,25.91027
301.79422,0.01417092,417.0879,411.17737,106.616356,24.525068,186.49193,5.910519,25.27596
307.52057,0.014488522,425.27573,419.11414,108.69513,23.885368,191.22139,6.161617,24.619192
313.3132,0.014806774,433.5595,427.1399,110.79468,23.242674,196.04886,6.4196177,23.95981
319.1669,0.01512549,441.9341,435.24966,112.91375,22.589457,200.97707,6.68447,23.290287
325.06427,0.015444482,450.40433,443.44812,115.072945,21.91876,205.97675,6.956262,22.603653
331.0102,0.015763571,458.9715,451.73645,117.26105,21.196302,211.03645,7.23503,21.865625
337.011,0.016082566,467.63428,460.11353,119.476074,20.450504,216.1999,7.52076,21.104607
343.076,0.016401269,476.3956,468.58206,121.7133,19.690714,221.45596,7.813492,20.329945
349.20615,0.01671948,485.25372,477.14053,123.97052,18.919037,226.81444,8.11319,19.543734
355.4011,0.017036993,494.20996,485.79013,126.24885,18.13409,232.27292,8.419852,18.744583
361.6442,0.017353605,503.26303,494.52963,128.55952,17.319143,237.82608,8.733428,17.915754
367.9515,0.017669113,512.41034,503.35645,130.88683,16.486956,243.47572,9.053836,17.07
374.32227,0.017983306,521.65216,512.27106,133.23314,15.64359,249.22223,9.381031,16.213379
380.7582,0.018295975,530.98895,521.274,135.5979,14.79247,255.06956,9.714961,15.349303
387.26016,0.018606909,540.4213,530.3657,137.98116,13.934604,261.01926,10.055571,14.478777
393.8108,0.018915894,549.9503,539.5475,140.40126,13.069901,267.07086,10.4028015,13.6017
400.43884,0.019222733,559.57965,548.823,142.83488,12.205163,273.22406,10.75665,12.724871
407.12784,0.019527212,569.30304,558.18616,145.29137,11.335853,279.47964,11.116901,11.843742
413.87973,0.019829132,579.1229,567.6394,147.77097,10.461652,285.83743,11.483506,10.9579935
420.70282,0.020128286,589.0348,577.1785,150.24522,9.527469,292.32883,11.856261,10.012525
427.59238,0.020424485,599.03625,586.80133,152.71635,8.536128,298.90872,12.235007,9.010156
434.5478,0.020717515,609.12976,596.51013,155.20279,7.541776,305.59558,12.619654,8.005025
441.5693,0.021007143,619.3146,606.30457,157.70302,6.5423026,312.4034,13.01003,6.9950185
448.6537,0.021293141,629.58765,616.18176,160.21799,5.539155,319.3251,13.405898,5.981577
455.81265,0.021575294,639.9491,626.142,162.74406,4.5569057,326.32568,13.80709,4.9892683
463.0337,0.02185338,650.3918,636.1785,165.28023,3.5734975,333.45392,14.21326,3.9960291
470.33798,0.022127189,660.9235,646.29913,167.8143,2.5930455,340.7235,14.62438,3.0059695
477.70502,0.022396516,671.5387,656.4986,170.36177,1.6152945,348.0955,15.040128,2.0188293
485.14203,0.022661168,682.2397,666.77936,172.92108,0.6497554,355.57834,15.460348,1.044115
492.62146,0.022920944,693.02704,677.1422,175.63043,0.0046520974,363.17953,15.884833,0.39004478
500.30612,0.023175664,703.9078,687.59424,178.45114,0.0,371.07373,16.313532,0.3766298
508.07977,0.023425257,714.8956,698.1489,181.28772,0.0,379.11102,16.746613,0.36806604
515.93854,0.023669891,725.9956,708.8114,184.14748,0.0,387.27267,17.184238,0.35969707
523.8738,0.023907956,737.20935,719.58417,187.04141,0.0,395.57196,17.625168,0.35151836
531.8847,0.024139628,748.5375,730.468,189.97118,0.0,404.0127,18.069416,0.3435256
539.97076,0.024365082,759.9792,741.4622,192.9366,0.0,412.59506,18.516954,0.33571473
548.13214,0.024584495,771.53455,752.5668,195.93736,0.0,421.31976,18.967785,0.3280814
556.3764,0.024798019,783.20386,763.7819,198.96631,0.0,430.168,19.421904,0.32062155
564.69696,0.025005821,794.9871,775.1077,202.02986,0.0,439.1585,19.879305,0.31333125
573.0932,0.02520806,806.8845,786.5445,205.12907,0.0,448.29425,20.339994,0.30620688
581.565,0.025404891,818.89606,798.0921,208.26392,0.0,457.576,20.803965,0.29924443
590.1121,0.025596455,831.02094,809.74976,211.4337,0.0,467.0039,21.271189,0.2924403
598.7348,0.025782898,843.25964,821.51794,214.63893,0.0,476.57895,21.741678,0.28579083
607.44006,0.025964364,855.61163,833.3962,217.87177,0.0,486.28802,22.215412,0.2792926
616.2337,0.02614099,868.07605,845.38367,221.12575,0.0,496.16852,22.692366,0.27294213
625.1078,0.026312908,880.6511,857.47864,224.40721,0.0,506.22412,23.172495,0.26673612
634.0565,0.026480243,893.33704,869.6813,227.72186,0.0,516.42725,23.65578,0.26067114
643.0795,0.026643122,906.13324,881.99115,231.06966,0.0,526.7785,24.142218,0.2547441
652.17725,0.026801668,919.04047,894.40875,234.45096,0.0,537.2789,24.631819,0.2489518
661.35,0.026956003,932.0593,906.9347,237.86566,0.0,547.9299,25.124594,0.24329126
670.5974,0.027106231,945.1891,919.5686,241.31378,0.0,558.7316,25.620514,0.23775938
679.926,0.027252473,958.42993,932.31036,244.78876,0.0,569.70294,26.119587,0.23235333
689.3289,0.027394831,971.7805,945.15875,248.29636,0.0,580.83185,26.621763,0.22707012
698.80505,0.027533414,985.2394,958.1124,251.83609,0.0,592.1119,27.127003,0.22190705
708.3524,0.027668312,998.8077,971.1723,255.41106,0.0,603.5503,27.635324,0.21686128
717.9736,0.027799638,1012.4853,984.3385,259.01855,0.0,615.14185,28.146727,0.21193029
727.6688,0.027927479,1026.2727,997.6115,262.6591,0.0,626.88776,28.66121,0.20711152
737.4371,0.028051931,1040.1709,1010.9921,266.33417,0.0,638.7877,29.178804,0.20240226
747.3113,0.028173093,1054.1796,1024.4801,270.0108,0.0,650.9494,29.699503,0.1978001
757.2575,0.02829104,1068.2909,1038.0679,273.71524,0.0,663.2642,30.223063,0.1933026
767.27655,0.028405854,1082.5062,1051.7567,277.44803,0.0,675.7347,30.749514,0.1889073
777.36945,0.028517632,1096.8257,1065.5468,281.2084,0.0,688.36505,31.27887,0.18461207
787.54333,0.02862644,1111.2512,1079.4401,284.991,0.0,701.1748,31.811169,0.1804144
797.8007,0.028732369,1125.7844,1093.438,288.7948,0.0,714.17175,32.346455,0.17631216
808.12024,0.028835485,1140.421,1107.5364,292.6368,0.0,727.2894,32.88459,0.17230324
818.5211,0.028935868,1155.163,1121.7374,296.50012,0.0,740.5928,33.425644,0.16838545
828.984,0.029033583,1170.009,1136.0396,300.40277,0.0,754.0861,33.969555,0.16455683
839.5234,0.029128702,1184.958,1150.4418,304.32867,0.0,767.7451,34.516293,0.16081521
850.13385,0.029221293,1200.0135,1164.9475,308.28726,0.0,781.5755,35.065945,0.15715867
860.8025,0.029311419,1215.1768,1179.5582,312.2925,0.0,795.56665,35.618557,0.15358528
871.5296,0.029399147,1230.4467,1194.2726,316.34265,0.0,809.70325,36.174084,0.15009306
882.32965,0.029484538,1245.8228,1209.0903,320.42337,0.0,824.0064,36.73251,0.14668027
893.2001,0.02956765,1261.3053,1224.0114,324.53674,0.0,838.5034,37.29383,0.14334513
904.14294,0.02964854,1276.8948,1239.0367,328.68192,0.0,853.17896,37.858067,0.14008576
915.1587,0.029727269,1292.5911,1254.1659,332.85797,0.0,868.0236,38.425205,0.13690053
926.24744,0.029803889,1308.3939,1269.3987,337.06454,0.0,883.0386,38.995224,0.13378775
937.41296,0.029878456,1324.303,1284.735,341.29752,0.0,898.2521,39.56813,0.13074575
948.6639,0.029951021,1340.3184,1300.1744,345.54834,0.0,913.71674,40.1439,0.12777293
959.98694,0.030021634,1356.4375,1315.7151,349.828,0.0,929.3545,40.72247,0.1248677
971.3819,0.030090343,1372.661,1331.3572,354.13678,0.0,945.1655,41.30384,0.122028455
982.849,0.0301572,1388.9886,1347.1007,358.47495,0.0,961.1509,41.88801,0.11925388
994.3882,0.030222254,1405.4207,1362.9457,362.84225,0.0,977.3111,42.47498,0.1165423
1006.0071,0.030285541,1421.9565,1378.8917,367.23053,0.0,993.6762,43.06472,0.11389247
1017.7113,0.030347113,1438.5957,1394.9385,371.63422,0.0,1010.2799,43.657227,0.11130284
1029.486,0.030407008,1455.3383,1411.0858,376.06763,0.0,1027.0642,44.252483,0.108772084
1041.328,0.030465271,1472.1853,1427.3347,380.5351,0.0,1044.0491,44.85052,0.1062988
1053.2346,0.030521942,1489.1302,1443.6791,385.03333,0.0,1061.2211,45.45114,0.10388178
1065.2019,0.030577064,1506.1732,1460.119,389.56577,0.0,1078.567,46.054356,0.10151975
1077.2202,0.030630669,1523.3162,1476.656,394.14447,0.0,1096.0677,46.660194,0.09921143
1089.3075,0.0306828,1540.5588,1493.29,398.75095,0.0,1113.744,47.268658,0.09695557
1101.4568,0.030733496,1557.9011,1510.0215,403.39227,0.0,1131.5847,47.879745,0.09475104
1113.6527,0.03078278,1575.3424,1526.849,408.0831,0.0,1149.6273,48.493423,0.092596605
1125.9086,0.030830702,1592.8798,1543.77,412.80682,0.0,1167.8846,49.1096,0.0904912
1138.2473,0.030877281,1610.525,1560.7965,417.55307,0.0,1186.3552,49.728634,0.08843359
1150.6554,0.030922562,1628.2725,1577.9222,422.3288,0.0,1205.0079,50.350357,0.086422846
1163.1335,0.030966569,1646.1233,1595.1486,427.13467,0.0,1223.8453,50.97479,0.08445772
1175.6802,0.031009339,1664.0747,1612.473,431.97,0.0,1242.8661,51.601856,0.08253733
1188.3488,0.031050898,1682.1276,1629.896,436.7817,0.0,1262.2666,52.231575,0.0806606
1201.0857,0.031091282,1700.2758,1647.412,441.61746,0.0,1281.8542,52.863754,0.07882659
1213.8895,0.031130511,1718.5184,1665.02,446.47842,0.0,1301.6254,53.498356,0.07703425
1226.7611,0.031168617,1736.8579,1682.7223,451.36514,0.0,1321.581,54.13546,0.07528265
1239.7006,0.031205632,1755.2925,1700.5175,456.27667,0.0,1341.7258,54.775013,0.073570944
1252.702,0.031241575,1773.8206,1718.4037,461.2168,0.0,1362.1061,55.416954,0.07189812
1265.7684,0.031276472,1792.4425,1736.3813,466.1833,0.0,1382.6838,56.06128,0.070263304
1278.8827,0.031310353,1811.1572,1754.4491,471.19156,0.0,1403.4423,56.70797,0.06866568
1292.058,0.03134324,1829.9646,1772.6077,476.22922,0.0,1424.3834,57.357018,0.067104384
1305.2966,0.03137516,1848.8655,1790.8569,481.29382,0.0,1445.507,58.00845,0.065578565
1318.5944,0.031406127,1867.8578,1809.1956,486.38846,0.0,1466.8091,58.662174,0.0640875
1331.9268,0.031436183,1886.9404,1827.6223,491.53586,0.0,1488.2788,59.318203,0.06263029
1345.3245,0.031465333,1906.1205,1846.1437,496.71252,0.0,1509.9387,59.97671,0.061206225
1358.7766,0.031493604,1925.3954,1864.7577,501.92685,0.0,1531.8053,60.637638,0.05981458
1372.2877,0.03152102,1944.7654,1883.4644,507.17462,0.0,1553.8717,61.30099,0.0584545
1385.8627,0.031547595,1964.2288,1902.262,512.449,0.0,1576.1328,61.966698,0.0571254
1399.5065,0.03157335,1983.7865,1921.1517,517.7461,0.0,1598.6318,62.63479,0.055826504
1413.2222,0.031598315,2003.4417,1940.1364,523.066,0.0,1621.3665,63.305378,0.054557145
1427.0107,0.031622496,2023.1915,1959.2133,528.40497,0.0,1644.3456,63.978367,0.05331663
1440.863,0.031645916,2043.0349,1978.3811,533.77057,0.0,1667.5236,64.6537,0.052104335
1454.7665,0.031668596,2062.9705,1997.6392,539.17456,0.0,1690.897,65.331375,0.0509196
1468.7296,0.03169055,2082.9924,2016.9813,544.6032,0.0,1714.4541,66.01118,0.049761795
1482.7532,0.0317118,2103.1028,2036.4095,550.0565,0.0,1738.1968,66.69318,0.048630323
1496.8368,0.031732354,2123.3,2055.9229,555.5345,0.0,1762.1249,67.37731,0.04752458
1510.9834,0.03175224,2143.5837,2075.5203,561.03345,0.0,1786.2852,68.06359,0.04644402
1525.2123,0.031771462,2163.9553,2095.2034,566.53503,0.0,1810.881,68.75202,0.045387972
1539.5013,0.031790044,2184.4136,2114.971,572.061,0.0,1835.668,69.442604,0.044355944
1553.8547,0.031808,2204.957,2134.8218,577.60516,0.0,1860.6467,70.13527,0.043347377
1568.2765,0.03182534,2225.589,2154.759,583.16705,0.0,1885.8225,70.83013,0.04236175
1582.7494,0.031842083,2246.3076,2174.7805,588.76135,0.0,1911.1901,71.527115,0.041398562
1597.257,0.03185824,2267.1113,2194.885,594.4039,0.0,1936.7455,72.22618,0.040457286
1611.8197,0.031873826,2287.9934,2215.0662,600.0675,0.0,1962.4824,72.92711,0.0395374
1626.4369,0.031888857,2308.9548,2235.325,605.75366,0.0,1988.4115,73.62994,0.038638443
1641.1078,0.031903338,2329.995,2255.6606,611.46246,0.0,2014.5416,74.334625,0.037759893
1655.8357,0.031917293,2351.1162,2276.075,617.1929,0.0,2040.8918,75.04127,0.0369013
1670.6255,0.031930722,2372.3154,2296.5654,622.9369,0.0,2067.5833,75.74974,0.03606223
1685.5522,0.031943645,2393.589,2317.1294,628.61664,0.0,2094.7095,76.45997,0.03524224
1700.5315,0.031956073,2414.9285,2337.7568,634.3076,0.0,2122.0183,77.17162,0.034440946
1715.5509,0.031968016,2436.336,2358.451,640.02454,0.0,2149.4429,77.88482,0.03365783
1730.6052,0.031979486,2457.8142,2379.2146,645.77545,0.0,2177.0242,78.59964,0.03289253
1745.6525,0.031990495,2479.3677,2400.0515,651.60645,0.0,2204.7056,79.31619,0.032144625
1760.7546,0.03200105,2501.0024,2420.9678,657.46124,0.0,2232.5796,80.0347,0.031413745
1775.9111,0.032011166,2522.718,2441.9626,663.3404,0.0,2260.647,80.75514,0.030699482
1791.118,0.032020852,2544.514,2463.0364,669.24664,0.0,2288.9277,81.4775,0.03000147
1806.372,0.03203011,2566.3904,2484.1887,675.1847,0.0,2317.437,82.20176,0.029319309
1821.6962,0.032038964,2588.3457,2505.4177,681.12885,0.0,2346.2146,82.92792,0.028652666
1837.0858,0.03204741,2610.379,2526.7231,687.0832,0.0,2375.2397,83.65589,0.028001158
1852.5269,0.032055464,2632.4868,2548.101,693.0586,0.0,2404.4531,84.38559,0.027364487
1868.0177,0.032063134,2654.6677,2569.5508,699.055,0.0,2433.8733,85.116974,0.026742306
1883.5616,0.032070428,2676.9233,2591.0732,705.071,0.0,2463.5757,85.85008,0.026134232
1899.1353,0.032077357,2699.2427,2612.6582,711.1193,0.0,2493.4226,86.58457,0.025539985
1914.6954,0.032083925,2721.6255,2634.305,717.24255,0.0,2523.3428,87.32042,0.02495924
1930.3035,0.032090142,2744.0798,2656.022,723.3876,0.0,2553.4463,88.05791,0.024391735
1945.9591,0.032096013,2766.6074,2677.8103,729.55615,0.0,2583.7573,88.79707,0.0238371
1961.6538,0.032101553,2789.2058,2699.6677,735.75433,0.0,2614.3542,89.537834,0.02329513
1977.3994,0.032106772,2811.881,2721.6008,741.9765,0.0,2645.1453,90.280426,0.022765465
1993.1937,0.032111663,2834.6309,2743.6062,748.22235,0.0,2676.1277,91.02471,0.02224785
2009.0391,0.032116238,2857.4573,2765.6865,754.4912,0.0,2707.327,91.770775,0.021741994
2024.936,0.03212051,2880.3557,2787.8372,760.7787,0.0,2738.7756,92.5185,0.0212476
2040.8761,0.032124482,2903.3179,2810.0505,767.0855,0.0,2770.4011,93.26759,0.020764455
2056.8604,0.03212816,2926.3455,2832.3274,773.4109,0.0,2802.2034,94.0181,0.020292297
2072.8882,0.03213155,2949.433,2854.6633,779.75165,0.0,2834.2036,94.76986,0.019830907
2088.971,0.03213466,2972.5881,2877.065,786.10223,0.0,2866.5112,95.5231,0.019379998
2105.1023,0.0321375,2995.8176,2899.5396,792.4772,0.0,2899.0146,96.278076,0.01893933
2121.2798,0.03214007,3019.1182,2922.0835,798.8751,0.0,2931.7107,97.03466,0.018508693
2137.4934,0.03214238,3042.4902,2944.6975,805.306,0.0,2964.612,97.79288,0.018087855
2153.7397,0.032144424,3065.9314,2967.379,811.7717,0.0,2997.7163,98.552605,0.017676596
2170.0303,0.032146223,3089.4404,2990.1265,818.259,0.0,3031.0059,99.313835,0.017274654
2186.3655,0.032147776,3113.0125,3012.936,824.76324,0.0,3064.525,100.07642,0.016881866
2202.744,0.03214909,3136.6458,3035.8057,831.28326,0.0,3098.2627,100.84032,0.01649801
2219.1562,0.032150168,3160.3376,3058.7324,837.82697,0.0,3132.2068,101.605385,0.016122868
2235.6064,0.032151006,3184.0913,3081.7197,844.39264,0.0,3166.3438,102.37174,0.015756248
2252.1018,0.03215163,3207.9058,3104.7664,850.9723,0.0,3200.717,103.1394,0.015397999
2268.6396,0.032152027,3231.7783,3127.87,857.5657,0.0,3235.3135,103.90822,0.015047898
2285.2153,0.03215221,3255.7078,3151.0293,864.17706,0.0,3270.089,104.67819,0.014705737
2301.826,0.032152183,3279.6924,3174.243,870.8073,0.0,3305.0515,105.449265,0.014371368
2318.4749,0.032151945,3303.7344,3197.513,877.45496,0.0,3340.1873,106.22149,0.014044575
2335.1594,0.03215151,3327.8313,3220.8364,884.1204,0.0,3375.4937,106.994804,0.013725246
2351.886,0.032150872,3351.9832,3244.2139,890.79706,0.0,3411.099,107.76919,0.013413157
