con,Omega,ygross,ynet,inv,Eind,scc,Dam,Emissions
78.12319,0.0028556,105.17594,104.8756,26.660461,30.158014,35.381058,0.3003404,32.758015
80.22453,0.0035029713,108.48883,108.108795,27.785625,30.47999,36.28975,0.38003325,33.020874
82.51616,0.0041125948,111.947426,111.48703,28.865744,30.830332,37.250362,0.46039438,33.313442
84.957825,0.004681116,115.53553,114.9947,29.924961,31.189892,38.25371,0.5408352,33.616543
87.552124,0.0052093416,119.24364,118.62246,30.951164,31.549704,39.29294,0.62118083,33.92118
90.31514,0.005700315,123.05556,122.3541,31.912071,31.905415,40.386112,0.7014555,34.22297
93.22964,0.0061581274,126.96049,126.17864,32.814484,32.26707,41.52586,0.7818388,34.531925
96.20975,0.0065872106,130.94861,130.08601,33.73269,32.594173,42.682117,0.8625861,34.807533
99.2545,0.006991939,135.02473,134.08066,34.673153,32.915665,43.860043,0.94408476,35.078697
102.332344,0.007376349,139.18382,138.15715,35.661808,33.223953,45.060642,1.0266684,35.337803
105.53263,0.0077440827,143.42482,142.31413,36.60771,33.51441,46.303677,1.1106937,35.580196
108.7929,0.008098346,147.74577,146.54927,37.5711,33.789448,47.57278,1.1964964,35.808266
112.08775,0.0084419055,152.14952,150.8651,38.580173,34.055088,48.870407,1.2844318,36.028
115.452065,0.008777124,156.63054,155.25577,39.59408,34.307453,50.196976,1.3747655,36.23551
118.872856,0.009106007,161.18732,159.71954,40.624165,34.548546,51.553085,1.4677728,36.432766
122.360214,0.009430244,165.82307,164.25934,41.6632,34.77735,52.933495,1.5637522,36.61872
125.92352,0.009751244,170.53856,168.8756,42.702217,34.994156,54.341,1.662963,36.79366
129.55878,0.01007018,175.3306,173.56499,43.741894,35.19758,55.77404,1.7656107,36.956165
133.2522,0.010388018,180.19633,178.32445,44.792686,35.383213,57.23191,1.8718828,37.101818
137.04124,0.010705551,185.13666,183.15468,45.8179,35.55233,58.72516,1.9819901,37.231853
140.85086,0.011023414,190.14774,188.05165,46.888737,35.70749,60.230434,2.0960772,37.348827
144.71608,0.011342114,195.22774,193.01344,47.96813,35.845993,61.75424,2.2142951,37.450012
148.63586,0.011662051,200.37766,198.04082,49.057747,35.967102,63.297443,2.3368144,37.534653
152.58641,0.011983538,205.59776,203.13399,50.181683,36.07201,64.84967,2.4637887,37.603912
156.59361,0.012306808,210.88629,208.29095,51.312195,36.162674,66.43436,2.5953372,37.659744
160.65977,0.012632026,216.24486,213.51323,52.448208,36.235596,68.03725,2.7316105,37.698627
164.76831,0.012959321,221.67354,218.80081,53.606476,36.29383,69.655655,2.8727388,37.7236
168.95027,0.013288759,227.17233,224.1535,54.755997,36.340767,71.29942,3.0188384,37.738026
173.13522,0.013620379,232.74359,229.57353,55.96896,36.36999,72.96113,3.1700559,37.735477
177.39633,0.013954203,238.39235,235.06577,57.176895,36.381557,74.66132,3.326575,37.716
181.72685,0.014290216,244.12132,240.63278,58.3893,36.37726,76.38664,3.4885466,37.681355
186.12685,0.014628379,249.92966,246.27359,59.604748,36.353855,78.14337,3.6560655,37.628304
190.47546,0.014968636,255.81741,251.98817,60.944912,36.32123,79.91365,3.8292377,37.5667
194.8931,0.015310901,261.7865,257.77832,62.29041,36.27115,81.707214,4.008188,37.488297
199.38693,0.015655106,267.84167,263.6486,63.638695,36.205154,83.524605,4.1930895,37.394627
203.96819,0.016001156,273.98166,269.59766,64.97818,36.134262,85.372246,4.384023,37.296688
208.553,0.016348952,280.20328,275.62225,66.38902,36.052914,87.23028,4.58103,37.18891
213.19267,0.0166984,286.5081,281.72385,67.82124,35.95974,89.1121,4.7842264,37.06991
217.81964,0.017049419,292.89688,287.90314,69.34309,35.85499,91.00487,4.9937215,36.93991
222.69229,0.017401917,299.37057,294.16095,70.696625,35.735138,92.9744,5.2096214,36.795395
227.60966,0.017755799,305.9222,300.49033,72.07547,35.59454,94.9569,5.431894,36.63069
232.59883,0.018110963,312.54874,306.88815,73.44989,35.438683,96.96087,5.660558,36.45127
237.60947,0.018467281,319.24887,313.3532,74.868774,35.26559,98.97889,5.8956585,36.255157
242.6791,0.018824622,326.0158,319.87866,76.28775,35.07444,101.01876,6.137124,36.041504
247.81061,0.019182852,332.851,326.466,77.70585,34.870075,103.09666,6.3850317,35.81515
252.96399,0.019541813,339.762,333.1224,79.17054,34.656525,105.19463,6.6395655,35.580112
258.155,0.019901369,346.7501,339.84927,80.6682,34.44108,107.32788,6.900801,35.343666
263.4037,0.020261385,353.8181,346.64923,82.18026,34.2131,109.48487,7.168844,35.095165
268.7086,0.020621754,360.9668,353.52304,83.70844,33.96891,111.6632,7.443769,34.83092
274.0712,0.020982364,368.19608,360.47043,85.25144,33.711525,113.862686,7.725624,34.553932
279.4802,0.021343092,375.50516,367.49075,86.81993,33.442345,116.08437,8.0144415,34.2656
285.00818,0.021703811,382.89377,374.5835,88.33938,33.149033,118.360825,8.310255,33.953568
290.60233,0.022064403,390.36295,381.74982,89.86453,32.839584,120.66647,8.613125,33.625824
296.22034,0.022424707,397.9147,388.9916,91.43987,32.516426,122.99069,8.923121,33.28479
301.87823,0.022784557,405.54773,396.3075,93.04811,32.18102,125.336395,9.240226,32.931915
307.61057,0.02314381,413.26074,403.69635,94.653015,31.82944,127.707054,9.564428,32.563255
313.39755,0.023502303,421.05496,411.1592,96.27568,31.463596,130.10484,9.8957615,32.18073
319.26263,0.023859894,428.93158,418.6973,97.89381,31.084038,132.52516,10.2342615,31.784866
325.1355,0.024216417,436.89832,426.3182,99.586174,30.69885,134.96152,10.580112,31.383743
331.05893,0.024571717,444.95422,434.0209,101.30922,30.309155,137.42642,10.933289,30.978474
337.04224,0.024925662,453.09848,441.80472,103.054344,29.924858,139.92845,11.293779,30.578964
343.06503,0.025278136,461.33447,449.67282,104.842545,29.527956,142.47313,11.661675,30.167185
349.25317,0.025629062,469.66522,457.62817,106.55235,29.128767,145.0747,12.03708,29.753462
355.53378,0.025978351,478.08902,465.66907,108.252426,28.709673,147.68752,12.419965,29.320164
361.85776,0.026325926,486.59845,473.78827,109.984634,28.2706,150.31845,12.810155,28.867208
368.1732,0.026671665,495.1884,481.9809,111.79636,27.81448,152.95587,13.207499,28.397526
374.53403,0.027015442,503.86304,490.25092,113.6394,27.354368,155.61894,13.612082,27.924158
381.1283,0.027357103,512.62146,498.59763,115.32487,26.888498,158.35336,14.023838,27.445332
387.8087,0.027696513,521.45465,507.0122,116.990685,26.413733,161.11725,14.442476,26.957903
394.46936,0.02803356,530.3635,515.4956,118.74352,25.928244,163.88402,14.867977,26.460041
401.1727,0.028368128,539.35406,524.05365,120.52719,25.435839,166.67084,15.300467,25.955547
407.87857,0.0287001,548.4256,532.6857,122.38032,24.931053,169.47554,15.73987,25.438944
414.58978,0.029029358,557.57697,541.39087,124.299644,24.417624,172.2911,16.1861,24.913963
421.46817,0.02935579,566.8111,550.17194,126.1274,23.903315,175.15828,16.639189,24.38837
428.41992,0.02967927,576.1329,559.0336,127.96112,23.381536,178.05327,17.099201,23.855564
435.3613,0.029999701,585.5455,567.9793,129.88785,22.853745,180.95352,17.56619,23.316994
442.284,0.030316986,595.057,577.01666,131.92178,22.310389,183.86673,18.040335,22.763105
449.40036,0.030631026,604.67017,586.1485,133.85509,21.761082,186.82668,18.52167,22.203505
456.52368,0.030941714,614.3797,595.36975,135.8662,21.189114,189.79257,19.00996,21.621475
463.7246,0.031248929,624.1851,604.68005,137.88593,20.60473,192.77791,19.505117,21.027262
470.98953,0.03155253,634.0854,614.0783,139.92398,19.993914,195.79182,20.006998,20.406837
478.3878,0.031852365,644.06494,623.55,141.89636,19.35633,198.84268,20.514992,19.759867
485.8743,0.032148235,654.12634,633.09735,143.8549,18.715742,201.91617,21.029007,19.110102
493.38846,0.03243992,664.2727,642.7237,145.86308,18.071203,204.99109,21.548952,18.456596
500.906,0.032727238,674.5092,652.4344,147.95013,17.419828,208.07053,22.074823,17.796457
508.52225,0.033010032,684.8377,662.2312,150.02386,16.769388,211.17578,22.606516,17.137455
516.20935,0.033288144,695.2602,672.1163,152.11322,16.115166,214.29721,23.143919,16.474863
523.9008,0.03354535,705.77826,682.1026,154.30055,15.470676,217.40707,23.675577,15.822195
531.6576,0.033784352,716.4011,692.198,156.53351,14.839305,220.53912,24.203148,15.18283
539.5852,0.034007397,727.1246,702.397,158.69725,14.203209,223.71664,24.727613,14.538923
547.5493,0.03421635,737.944,712.69415,160.92424,13.577448,226.89691,25.249752,13.905529
555.54675,0.034412734,748.8648,723.0943,163.22148,12.958482,230.09695,25.770485,13.279103
563.55963,0.034597818,759.8944,733.60376,165.6125,12.34325,233.3017,26.290686,12.656582
571.6454,0.03477266,771.034,744.22314,168.04129,11.734418,236.52907,26.810902,12.040625
579.8083,0.034938116,782.2828,754.9513,170.5024,11.132082,239.77507,27.331484,11.431327
588.06104,0.03509492,793.6427,765.7899,172.9843,10.533631,243.04135,27.85283,10.826072
596.4571,0.035243664,805.1157,776.7405,175.4372,9.948276,246.34474,28.375225,10.234066
604.9662,0.035384845,816.6939,787.79535,177.88306,9.372294,249.68422,28.898588,9.6515875
613.5816,0.0355189,828.3741,798.9512,180.32346,8.79847,253.0442,29.422935,9.071412
622.2078,0.035646196,840.1548,810.20636,182.85269,8.227583,256.40863,29.948322,8.494319
630.89966,0.035767034,852.0412,821.5662,185.42145,7.6618032,259.79163,30.474985,7.922475
639.705,0.035881657,864.031,833.0282,187.98103,7.106097,263.20724,31.002865,7.3608403
648.5669,0.03599028,876.1215,844.5896,190.58463,6.5566387,266.6393,31.531858,6.805591
657.5426,0.03609308,888.31366,856.2517,193.17502,6.0093045,270.10043,32.061977,6.252596
666.64276,0.03619023,900.6074,868.0142,195.74394,5.4731793,273.60178,32.59319,5.7109385
675.8249,0.03628185,913.0046,879.87915,198.33618,4.949482,277.137,33.125496,5.181835
685.05536,0.036368072,925.5117,891.85266,200.99055,4.43474,280.6988,33.659077,4.66181
694.3589,0.036449015,938.12585,903.9321,203.68376,3.9427042,284.30276,34.193764,4.164611
703.7537,0.036524814,950.84546,916.11597,206.3945,3.4683733,287.95,34.72945,3.6852345
713.2162,0.0365956,963.6778,928.41144,209.15044,2.998946,291.62714,35.266365,3.2108765
722.75665,0.036661554,976.62244,940.818,211.9409,2.5362523,295.33127,35.804497,2.7433639
732.4541,0.036722794,989.6774,953.3336,214.68695,2.0865197,299.0765,36.34372,2.2889218
742.17145,0.03677944,1002.82513,965.9418,217.5146,1.6682853,302.86774,36.883347,1.8660853
751.9675,0.036831595,1016.0631,978.6399,220.35858,1.2681317,306.70013,37.423225,1.4614344
761.9509,0.036879443,1029.3896,991.42633,223.11644,0.9117507,310.5963,37.963318,1.100658
771.98956,0.036923155,1042.8031,1004.29956,225.92154,0.60883677,314.54562,38.50358,0.7934488
782.3399,0.03696298,1056.3073,1017.26294,228.53851,0.4187626,318.751,39.044262,0.59917706
792.8441,0.036999255,1069.8647,1030.2806,231.06735,0.26593894,323.03976,39.5842,0.44225112
803.31573,0.03703256,1083.4889,1043.3645,233.70952,0.16139403,327.37732,40.124363,0.33369726
813.9586,0.03706344,1097.1873,1056.5217,236.26437,0.092218935,331.76132,40.665535,0.26060438
824.4381,0.037092425,1110.9534,1069.7454,239.05663,0.04808959,336.17438,41.207954,0.21264641
834.8974,0.037120026,1124.797,1083.0444,241.95084,0.025361706,340.64597,41.75249,0.18617693
845.4039,0.03714668,1138.7235,1096.4237,244.87856,0.004360304,345.14847,42.2998,0.16151896
856.075,0.03717277,1152.7356,1109.8853,247.72862,0.0,349.7202,42.850376,0.15358528
866.95984,0.03719858,1166.8309,1123.4264,250.44595,0.0,354.37173,43.404453,0.15009306
877.91406,0.037224356,1181.0072,1137.0449,253.17114,0.0,359.05713,43.96223,0.14668027
888.899,0.037250277,1195.2659,1150.742,255.94402,0.0,363.77304,44.523987,0.14334513
899.93176,0.037276465,1209.6082,1164.5182,258.74826,0.0,368.52167,45.089912,0.14008576
911.0391,0.037303,1224.0345,1178.3744,261.55765,0.0,373.30582,45.66016,0.13690053
922.2087,0.037329912,1238.5457,1192.3109,264.3851,0.0,378.12024,46.2348,0.13378775
933.39185,0.037357222,1253.141,1206.3271,267.2786,0.0,382.94568,46.813866,0.13074575
944.66547,0.037384924,1267.8179,1220.4207,270.15878,0.0,387.81924,47.397278,0.12777293
955.9856,0.037412997,1282.5793,1234.5942,273.0722,0.0,392.72778,47.985134,0.1248677
967.33185,0.03744142,1297.4248,1248.8474,276.03888,0.0,397.6716,48.577427,0.122028455
978.75305,0.037470162,1312.3562,1263.1819,279.01202,0.0,402.6513,49.1742,0.11925388
990.30597,0.03749919,1327.3739,1277.5984,281.93506,0.0,407.6833,49.775444,0.1165423
1001.9539,0.03752846,1342.4739,1292.093,284.84088,0.0,412.75906,50.38098,0.11389247
1013.75885,0.037557937,1357.6593,1306.6685,287.6705,0.0,417.90314,50.990883,0.11130284
1025.4946,0.03758759,1372.938,1321.3326,290.6577,0.0,423.06815,51.605427,0.108772084
1036.9722,0.037617385,1388.3145,1336.0897,293.99564,0.0,428.23102,52.224762,0.1062988
1048.53,0.03764729,1403.791,1350.9421,297.34848,0.0,433.43204,52.848927,0.10388178
1060.1658,0.03767727,1419.3647,1365.887,300.71533,0.0,438.67078,53.477787,0.10151975
1072.0209,0.0377073,1435.034,1380.9227,303.95355,0.0,443.97778,54.11126,0.09921143
1084.063,0.037737355,1450.7944,1396.0453,307.09122,0.0,449.34625,54.74914,0.09695557
1096.1357,0.03776741,1466.6423,1411.2511,310.28143,0.0,454.74402,55.39128,0.09475104
1108.2878,0.037797444,1482.5819,1426.5441,313.4788,0.0,460.1795,56.037804,0.092596605
1120.5164,0.037827443,1498.6096,1441.9211,316.68353,0.0,465.65204,56.68857,0.0904912
1132.831,0.037857383,1514.7273,1457.3835,319.88745,0.0,471.15808,57.34361,0.08843359
1145.2163,0.037887253,1530.9318,1472.929,323.1033,0.0003282106,476.69968,58.0028,0.086751066
1157.6255,0.037917033,1547.2246,1488.5586,326.38077,0.007245779,482.27588,58.666164,0.0917035
1170.0974,0.03794672,1563.5958,1504.2627,329.66937,0.013211446,487.88794,59.333332,0.095748775
1182.6208,0.03797632,1580.0463,1520.0417,332.9809,0.017060487,493.53055,60.00434,0.09772108
1195.2062,0.03800584,1596.5721,1535.8931,336.30194,0.020645777,499.2067,60.67906,0.09947237
1207.8689,0.038035262,1613.174,1551.8164,339.6176,0.024880378,504.92294,61.357494,0.10191462
1220.6101,0.0380646,1629.8572,1567.8173,342.93207,0.029526418,510.67892,62.039856,0.10480906
1233.3812,0.038093843,1646.6223,1583.8961,346.29413,0.033731528,516.47363,62.72617,0.10730247
1246.2017,0.038122993,1663.4701,1600.0536,349.68433,0.03519543,522.3075,63.41646,0.10709356
1259.0906,0.038152035,1680.4025,1616.2916,353.08585,0.03360848,528.1797,64.11077,0.10387179
1272.077,0.03818097,1697.419,1632.6097,356.4697,0.033218753,534.10077,64.8091,0.10188444
1285.1255,0.038209785,1714.5193,1649.0077,359.87103,0.033323504,540.0527,65.51141,0.10042789
1298.2013,0.038238455,1731.7013,1665.4838,363.3225,0.033023924,546.0294,66.21759,0.098602496
1311.3423,0.038266968,1748.9615,1682.034,366.78278,0.03283757,552.03973,66.92746,0.09692507
1324.5652,0.038295332,1766.3009,1698.6598,370.23663,0.033798188,558.08673,67.64108,0.096428476
1337.72,0.038323533,1783.7317,1715.3728,373.8452,0.034994252,564.14667,68.3589,0.09620047
1350.9424,0.038351573,1801.2568,1732.1757,377.47583,0.036204364,570.2424,69.081024,0.09601895
1364.2428,0.038379457,1818.8748,1749.0675,381.1169,0.037410118,576.37555,69.80743,0.09586461
1377.6172,0.03840718,1836.5817,1766.0437,384.768,0.03861607,582.5454,70.537926,0.09574147
1391.0236,0.03843475,1854.3765,1783.1041,388.4708,0.039564945,588.7682,71.2725,0.095391445
1404.4946,0.038462155,1872.2579,1800.247,392.19083,0.04048079,595.02985,72.01108,0.09503793
1418.035,0.03848942,1890.2236,1817.47,395.9215,0.041371103,601.3272,72.75361,0.09468773
1431.6444,0.038516518,1908.2731,1834.7731,399.6626,0.042259935,607.6601,73.50003,0.09436428
1445.3019,0.03854347,1926.4047,1852.1543,403.4334,0.043146852,614.02264,74.25032,0.09406645
1459.0209,0.038570255,1944.6157,1869.6113,407.21835,0.044185996,620.4252,75.004326,0.09394779
1472.7948,0.038596887,1962.8947,1887.133,411.01242,0.04526819,626.8623,75.76163,0.09389851
1486.7976,0.038623367,1981.2369,1904.7148,414.63742,0.046601128,633.3694,76.52204,0.0941257
1500.8958,0.038649704,1999.6509,1922.365,418.23483,0.047956627,639.91705,77.28591,0.094400644
1515.057,0.038675886,2018.1395,1940.0863,421.84006,0.049290337,646.49854,78.05334,0.094678305
1529.1091,0.03870192,2036.702,1957.8778,425.62433,0.051122252,653.11053,78.82429,0.09547819
1543.2201,0.038727798,2055.345,1975.7457,429.4257,0.052967403,659.7569,79.598976,0.09631478
1557.3988,0.038753543,2074.0693,1993.6918,433.23703,0.05477406,666.4388,80.37754,0.09713581
1571.7308,0.038779147,2092.8704,2011.7106,436.9675,0.05663394,673.1817,81.15973,0.098032504
1586.1132,0.038804613,2111.7441,2029.7988,440.71637,0.05776438,679.9644,81.94542,0.098221675
1600.5397,0.03882994,2130.688,2047.9535,444.4869,0.05812061,686.7843,82.73449,0.09765801
1615.0216,0.038855128,2149.6975,2066.1707,448.26398,0.058376472,693.6366,83.52677,0.09701491
1629.5565,0.03888018,2168.7712,2084.449,452.0491,0.0585997,700.5204,84.32221,0.096359596
1644.1459,0.038905088,2187.911,2102.79,455.84183,0.058805607,707.43604,85.12086,0.09570691
1658.7887,0.038929854,2207.115,2121.1921,459.64212,0.0589882,714.3829,85.92266,0.095050424
1673.4907,0.038954478,2226.383,2139.6555,463.4435,0.058929514,721.36224,86.72759,0.094171755
1688.2544,0.03897895,2245.714,2158.1785,467.2424,0.057570845,728.3777,87.53558,0.09201179
1703.0006,0.039003287,2265.1074,2176.7605,471.11734,0.056199115,735.41595,88.346634,0.089856945
1717.7988,0.03902747,2284.5642,2195.4036,475.00092,0.054847192,742.4846,89.16077,0.08773972
1732.6504,0.0390515,2304.0864,2214.1084,478.89258,0.053538393,749.58435,89.97803,0.085683025
1747.5597,0.03907537,2323.6714,2232.873,482.78616,0.052557826,756.7183,90.79832,0.083971575
1762.5253,0.039099097,2343.317,2251.6953,486.68048,0.051872853,763.88666,91.62158,0.08257233
1777.5383,0.03912266,2363.0212,2270.5737,490.5831,0.051191144,771.084,92.44767,0.08119261
1792.5999,0.03914607,2382.7852,2289.5085,494.4931,0.050539244,778.31085,93.276665,0.07985855
1807.7101,0.039169326,2402.6072,2308.4988,498.4096,0.049886566,785.5668,94.10851,0.07853923
1822.8687,0.039192434,2422.4893,2327.546,502.3342,0.04924804,792.85187,94.943245,0.0772492
1838.0636,0.039215397,2442.429,2346.6482,506.2772,0.047939584,800.16614,95.78082,0.075304076
1853.2678,0.03923821,2462.427,2365.806,510.26514,0.044537973,807.5081,96.62123,0.07128028
1868.5227,0.03926088,2482.4854,2385.021,514.25977,0.0412098,814.87976,97.464554,0.06734403
1883.825,0.03928339,2502.6028,2404.292,518.26263,0.037971977,822.28,98.31072,0.06351195
1899.1754,0.039305743,2522.777,2423.6177,522.2713,0.034823295,829.7086,99.15964,0.05978253
1914.5627,0.039327938,2543.0085,2442.9973,526.2968,0.031948105,837.1606,100.01128,0.056339838
1929.9934,0.039349966,2563.297,2462.4316,530.3334,0.02921906,844.63873,100.865654,0.05305616
1945.4675,0.039371833,2583.6387,2481.916,534.3762,0.026564872,852.1435,101.72259,0.049860004
1961.0436,0.03939353,2604.035,2501.4526,538.3689,0.024468318,859.7042,102.582115,0.047233786
1976.7217,0.039415076,2624.4814,2521.0374,542.3073,0.022816233,867.3189,103.44413,0.04506408
1992.3839,0.03943646,2644.9785,2540.67,546.30945,0.021389714,874.9601,104.308586,0.04313171
2008.0812,0.039457683,2665.5217,2560.3464,550.31976,0.020024385,882.62695,105.175316,0.04127198
2023.8154,0.03947876,2686.1106,2580.0662,554.336,0.018696425,890.31946,106.04432,0.039460883
2039.6334,0.03949969,2706.7468,2599.8313,558.3135,0.01730674,898.0478,106.915665,0.03759904
2055.5166,0.039520472,2727.4329,2619.6433,562.2725,0.01594298,905.8028,107.789444,0.035773885
2071.5264,0.039541114,2748.1753,2639.5093,566.15826,0.014688981,913.5992,108.66591,0.03406898
2087.4685,0.039561626,2768.9714,2659.4263,570.16235,0.013549391,921.42596,109.545006,0.032488722
2103.3071,0.039582,2789.8184,2679.3916,574.3182,0.012779464,929.2599,110.426575,0.03128816
2119.1904,0.03960224,2810.7168,2699.406,578.47797,0.012225887,937.12445,111.31068,0.03031374
2135.1318,0.039622337,2831.6648,2719.4678,582.6268,0.012172901,945.02203,112.197174,0.029849496
2151.102,0.039642315,2852.6628,2739.5764,586.7933,0.011983722,952.9505,113.08616,0.029258378
2167.1104,0.03966218,2873.707,2759.7295,590.9658,0.011795141,960.904,113.97748,0.028677005
2183.1582,0.039681915,2894.7988,2779.9277,595.1432,0.011608669,968.8826,114.871155,0.028106678
2199.2466,0.039701536,2915.9387,2800.1711,599.3253,0.011422865,976.8869,115.76723,0.027545732
