con,Omega,Theta,ygross,ynet,inv,Eind,scc,carbontax,Abatement,Dam,Emissions
77.10226,0.0028556,0.00022309502,105.17594,104.8756,27.749956,32.894978,14.160901,15.443786,0.023464229,0.3003404,35.494976
79.640564,0.002278755,0.00021085405,108.72105,108.473305,28.809862,33.546165,14.514638,15.028004,0.022924274,0.24774861,36.08705
82.28435,0.0021243885,0.00021484026,112.38226,112.14352,29.835083,34.091026,14.910998,15.315809,0.024144232,0.23874357,36.574135
85.02501,0.0021175656,0.00022436913,116.15577,115.9098,30.858776,34.599453,15.338556,15.848051,0.02606177,0.24596748,37.026104
87.8437,0.002166911,0.00023580933,120.03665,119.776535,31.904598,35.09547,15.786537,16.462976,0.028305762,0.26010874,37.46694
90.73599,0.002238896,0.00024786073,124.020676,123.743004,32.976353,35.586464,16.254938,17.103119,0.030739855,0.2776694,37.90402
93.71659,0.0023206885,0.00026014363,128.10503,127.80773,34.0579,36.07368,16.734552,17.75217,0.033325706,0.29729187,38.338535
96.78203,0.0024073133,0.00027243755,132.28847,131.97,35.15201,36.557594,17.223864,18.401188,0.036040343,0.31845978,38.77095
99.92623,0.002496855,0.00028401375,136.56999,136.229,36.264088,37.04238,17.735023,19.020643,0.038787756,0.34099552,39.205414
103.15683,0.0025885915,0.0002949251,140.94872,140.58386,37.385567,37.526752,18.27131,19.613852,0.04156931,0.36485866,39.640602
106.45043,0.0026822716,0.00030576144,145.42247,145.0324,38.53762,38.005463,18.822714,20.205624,0.044464584,0.39006254,40.07125
109.80969,0.0027778281,0.00031653067,149.99033,149.5737,39.71666,38.47747,19.386671,20.796677,0.04747654,0.41664737,40.49629
113.24817,0.0028752505,0.0003269753,154.65208,154.20741,40.908806,38.944237,19.972097,21.376904,0.050567407,0.44466347,40.917152
116.77183,0.002974543,0.0003370263,159.4073,158.93314,42.107754,39.405735,20.584867,21.943941,0.053724453,0.47416386,41.33379
120.36255,0.0030757214,0.00034711236,164.25511,163.7499,43.33051,39.85823,21.21332,22.515293,0.057014976,0.50520295,41.742447
124.01979,0.0031787972,0.00035726954,169.19429,168.65646,44.576424,40.300632,21.85637,23.092604,0.06044797,0.53783435,42.142002
127.74192,0.0032837775,0.00036756796,174.22447,173.65234,45.8466,40.73219,22.513374,23.678717,0.06403933,0.57211435,42.531696
131.53616,0.0033906586,0.0003780684,179.34525,178.73714,47.133404,41.151814,23.187906,24.27623,0.06780477,0.60809845,42.910404
135.41646,0.0034994348,0.00038874766,184.55537,183.90953,48.4216,41.559307,23.88698,24.884245,0.07174548,0.6458396,43.27791
139.35985,0.003610093,0.00039966695,189.85672,189.17134,49.735886,41.9541,24.598799,25.50535,0.07587946,0.6854004,43.63363
143.37369,0.003722617,0.00041093034,195.24797,194.52113,51.067524,42.335,25.322657,26.143658,0.08023331,0.7268334,43.976337
147.45403,0.003836988,0.0004224463,200.72896,199.95876,52.420254,42.702393,26.060204,26.795649,0.0847972,0.7701946,44.30641
151.58926,0.003953182,0.00043454042,206.3002,205.48465,53.8061,43.053642,26.813221,27.474112,0.08964577,0.8155422,44.621185
155.788,0.0040711733,0.0004470794,211.96104,211.09811,55.21573,43.38944,27.579224,28.173832,0.09476341,0.86293006,44.92134
160.05258,0.0041909334,0.0004599048,217.712,216.79959,56.647305,43.710724,28.361135,28.888779,0.1001268,0.9124165,45.207794
164.38873,0.004312425,0.00047287857,223.55486,222.5908,58.096806,44.018932,29.156458,29.61364,0.1057143,0.9640636,45.481968
168.78659,0.0044356184,0.00048616802,229.49101,228.4731,59.575428,44.312653,29.970264,30.355093,0.1115712,1.0179346,45.74242
173.24431,0.004560481,0.0004998696,235.5217,234.4476,61.08612,44.591442,30.794172,31.116835,0.11773013,1.0740921,45.9887
177.77328,0.0046869814,0.0005135238,241.64746,240.51488,62.618073,44.85842,31.633007,31.881489,0.12409174,1.1325972,46.223907
182.37334,0.0048150844,0.00052746834,247.86835,246.67482,64.171364,45.11106,32.489445,32.662075,0.13074271,1.193507,46.445503
187.04701,0.004944759,0.0005416943,254.1844,252.92752,65.7435,45.34918,33.36187,33.458416,0.13769025,1.2568806,46.653275
191.79169,0.0050759725,0.0005568816,260.5943,259.27155,67.33549,45.5673,34.251923,34.296368,0.14512019,1.3227695,46.841747
196.6097,0.0052086897,0.0005727911,267.0978,265.70657,68.94468,45.767002,35.163948,35.166866,0.15299124,1.3912295,47.01247
201.49919,0.00534286,0.0005891418,273.696,272.23367,70.57412,45.95052,36.093582,36.059322,0.16124576,1.4623194,47.167664
206.46004,0.0054784324,0.0006059292,280.38937,278.8533,72.2243,46.11793,37.040386,36.973618,0.16989611,1.5360943,47.307407
211.48692,0.0056153643,0.00062324875,287.178,285.5654,73.90049,46.268364,38.002125,37.913498,0.17898332,1.612609,47.430794
216.57999,0.00575361,0.00064110634,294.06265,292.3707,75.603294,46.401836,38.978855,38.879257,0.18852542,1.6919216,47.53783
221.74481,0.005893121,0.0006594068,301.0444,299.2703,77.32815,46.519253,39.972218,39.867424,0.19851074,1.7740911,47.62942
226.98125,0.0060338504,0.000678121,308.12396,306.26477,79.07584,46.62078,40.98164,40.877083,0.20894532,1.8591738,47.70571
232.29185,0.0061757523,0.00069718884,315.30157,313.35434,80.843994,46.706867,42.004955,41.906166,0.21982472,1.9472244,47.767124
237.67845,0.006318782,0.0007167789,322.57523,320.53696,82.62874,46.775906,43.044968,42.961075,0.23121515,2.0382826,47.812054
243.13503,0.006462896,0.00073692156,329.94516,327.81274,84.43616,46.82776,44.102425,44.043015,0.2431437,2.132401,47.840347
248.66904,0.0066080415,0.00075738766,337.41144,335.18182,86.2589,46.86409,45.187122,45.143757,0.25555128,2.2296288,47.853657
254.29323,0.006754169,0.0007778912,344.9743,342.6443,88.0845,46.887135,46.292995,46.252995,0.26835248,2.3300147,47.8542
259.97253,0.0069012335,0.00079885777,352.63693,350.2033,89.950966,46.89398,47.409603,47.386654,0.28170672,2.4336298,47.83905
265.70447,0.0070491913,0.0008202899,360.3985,357.85803,91.85999,46.884666,48.538486,48.544907,0.29563126,2.5405183,47.808254
271.50415,0.0071979985,0.00084204646,368.2579,365.60718,93.79515,46.86002,49.685574,49.722866,0.3100902,2.65072,47.762608
277.37875,0.0073476005,0.0008643256,376.21625,373.45197,95.75045,46.81876,50.85121,50.92796,0.32517335,2.7642868,47.700825
283.3256,0.0074979565,0.00088717067,384.27475,381.39346,97.72952,46.760838,52.039635,52.161846,0.3409173,2.8812754,47.62285
289.34296,0.007649012,0.0009102835,392.4378,389.43604,99.73857,46.68881,53.244106,53.414112,0.35722962,3.0017612,47.53122
295.4402,0.0078007164,0.00093379343,400.70724,397.58145,101.77002,46.602165,54.468,54.689533,0.37417778,3.1258035,47.425423
301.607,0.007953024,0.0009576559,409.0827,405.82922,103.8336,46.50107,55.708,55.986805,0.3917605,3.2534444,47.305603
307.84482,0.008105886,0.0009817047,417.56354,414.17883,105.927414,46.386776,56.963085,57.300163,0.4099241,3.3847227,47.17302
314.15283,0.008259258,0.0010062136,426.14774,422.6281,108.050026,46.2569,58.24176,58.63982,0.42879564,3.5196643,47.02527
320.52795,0.0084131,0.00103064,434.8409,431.18256,110.21023,46.116238,59.538704,59.986458,0.44816443,3.6583602,46.86713
326.97067,0.0085673565,0.0010545619,443.64346,439.84262,112.4081,45.96767,60.849438,61.32545,0.46784952,3.8008518,46.70149
333.494,0.008721992,0.0010788457,452.55545,448.6083,114.6303,45.805145,62.181473,62.68797,0.4882375,3.9471853,46.52228
340.09915,0.008876976,0.001103563,461.57758,457.48013,116.87612,45.628128,63.538612,64.07692,0.5093799,4.097413,46.328957
346.78094,0.009032271,0.0011287255,470.7108,466.45926,119.15182,45.43671,64.91912,65.49297,0.5313033,4.2515874,46.121605
353.54092,0.009187828,0.001154289,479.95535,475.5456,121.45574,45.231327,66.32185,66.93475,0.5540072,4.409747,45.90065
360.38358,0.009343599,0.0011802034,489.31152,484.73953,123.78385,45.012253,67.74717,68.40091,0.57748705,4.5719304,45.66636
367.30914,0.009499539,0.0012064221,498.77988,494.04166,126.13647,44.780025,69.195694,69.89,0.60173905,4.7381787,45.419254
374.30905,0.009655599,0.0012328732,508.36096,503.45242,128.52267,44.535355,70.668495,71.39965,0.62674457,4.9085293,45.160053
381.39413,0.009811729,0.0012595728,518.0565,512.97345,130.93321,44.278225,72.165436,72.93084,0.6525299,5.08303,44.888718
388.56058,0.0099678915,0.0012863395,527.86444,522.6028,133.36998,44.00973,73.687996,74.47749,0.6790129,5.261696,44.606342
395.811,0.0101240445,0.001313519,537.78204,532.33746,135.8273,43.727444,75.234795,76.05205,0.7063869,5.444529,44.31049
403.1446,0.010280142,0.0013411355,547.8093,542.1778,138.30606,43.431232,76.80571,77.65579,0.73468655,5.631558,44.00102
410.56177,0.010436147,0.0013691107,557.94775,552.1249,140.80717,43.12185,78.40116,79.28625,0.7638922,5.8228245,43.678684
418.0604,0.010592004,0.0013978311,568.1979,562.1795,143.3333,42.79677,80.02269,80.957504,0.79424465,6.018355,43.34094
425.6375,0.0107476665,0.0014261074,578.5604,572.3422,145.88849,42.464478,81.66554,82.6275,0.8250892,6.2181745,42.996277
433.28873,0.010903083,0.0014544337,589.0333,582.611,148.47491,42.12146,83.32838,84.314186,0.8567099,6.422279,42.641167
441.0236,0.011058221,0.0014831775,599.6164,592.9857,151.0826,41.765255,85.0165,86.030975,0.88933754,6.6306906,42.27314
448.8432,0.011213046,0.0015123066,610.3096,603.4662,153.71033,41.39623,86.73004,87.7771,0.92297524,6.8434296,41.89257
456.74884,0.011367505,0.0015417931,621.11456,614.0541,156.3585,41.01485,88.469444,89.551865,0.95763016,7.0605235,41.499905
464.74066,0.011521558,0.0015716084,632.03156,624.7496,159.02702,40.621338,90.23497,91.35471,0.99330616,7.281989,41.095367
472.82336,0.011675163,0.0016019178,643.06226,635.5544,161.71289,40.21501,92.02768,93.191765,1.0301328,7.5078564,40.67826
480.98593,0.011828274,0.0016335051,654.20325,646.4651,164.42311,39.79032,93.84475,95.091545,1.0686443,7.738095,40.24304
489.2201,0.011980845,0.0016659696,665.45374,657.481,167.16557,39.350193,95.67369,97.04016,1.1086258,7.9726973,39.792614
497.5318,0.012132811,0.0016991674,676.81946,668.6077,169.93982,38.89613,97.52658,99.03285,1.1500297,8.211723,39.328487
505.90875,0.0122841215,0.0017325283,688.30096,679.84576,172.75912,38.432217,99.40277,101.049576,1.192501,8.4551735,38.85475
514.3332,0.012434717,0.0017656508,699.8945,691.19147,175.63783,37.961037,101.28719,103.07641,1.2357692,8.70299,38.37396
522.82947,0.0125845615,0.0017985654,711.6012,702.646,178.55275,37.482742,103.19832,105.11463,1.2798613,8.955188,37.886276
531.4175,0.0127336215,0.0018315181,723.4319,714.22,181.49431,36.99619,105.13771,107.17359,1.3249785,9.211907,37.390553
540.0967,0.012881866,0.001865607,735.38654,725.91327,184.4623,36.494247,107.09398,109.29309,1.3719422,9.47315,36.87964
548.8581,0.013029265,0.0019001127,747.4603,737.7215,187.46169,35.981537,109.07711,111.44785,1.4202589,9.738859,36.358166
557.6955,0.013175773,0.0019363512,759.6531,749.64404,190.497,35.44947,111.08974,113.68582,1.4709551,10.009017,35.81754
566.6244,0.01332134,0.001972799,771.9694,761.68567,193.55862,34.908665,113.131096,115.95245,1.5229403,10.283667,35.268364
575.6314,0.013451786,0.002005875,784.4092,773.8575,196.67378,34.38303,115.20722,118.118484,1.573427,10.551704,34.73455
584.7083,0.013575493,0.0020376327,796.9815,786.16205,199.85179,33.859264,117.3081,120.258156,1.6239556,10.819417,34.202793
593.8803,0.013695764,0.0020687587,809.68146,798.5922,203.05989,33.332607,119.44003,122.396675,1.6750357,11.089208,33.668324
603.1463,0.0138139,0.0020990565,822.51,811.1479,206.29892,32.804638,121.60254,124.52674,1.7264948,11.362071,33.13272
612.5264,0.0139303915,0.002129331,835.4682,823.8298,209.54912,32.27003,123.80913,126.67821,1.7789882,11.638399,32.59065
622.0088,0.014045426,0.002159619,848.54956,836.6313,212.81573,31.728504,126.04621,128.85257,1.8325437,11.91824,32.041836
631.5861,0.014159058,0.0021902034,861.7503,849.5487,216.10191,31.1782,128.3115,131.06064,1.8874084,12.201572,31.48441
641.2502,0.014271293,0.0022208614,875.0692,862.5809,219.41498,30.620714,130.60545,133.29459,1.9434074,12.48837,30.91996
651.0064,0.014382104,0.0022512937,888.50806,875.7294,222.7515,30.058146,132.92964,135.5439,2.0002925,12.778616,30.350586
660.83624,0.014491467,0.002282206,902.06757,888.9953,226.13017,29.486258,135.25476,137.8347,2.0587041,13.072282,29.772047
670.7589,0.014599356,0.0023128877,915.74786,902.37854,229.53246,28.909668,137.61041,140.14139,2.118022,13.3693285,29.188963
680.77216,0.014705741,0.0023467457,929.5477,915.878,232.95656,28.306307,140.00766,142.59163,2.1814122,13.669688,28.579248
690.881,0.014810588,0.002382171,943.4697,929.49646,236.40128,27.68717,142.43936,145.12617,2.2475064,13.973341,27.953907
701.0712,0.014913829,0.0024179514,957.51294,943.2328,239.88087,27.060188,144.89644,147.70067,2.3152196,14.280185,27.320858
711.34973,0.015015395,0.0024535214,971.6791,957.0889,243.391,26.42939,147.38202,150.29398,2.3840353,14.590147,26.684132
721.7279,0.015115245,0.0024888057,985.9687,971.0655,246.92082,25.7952,149.90178,152.90414,2.4538844,14.903158,26.044151
732.20844,0.015213351,0.002526868,1000.3819,985.1627,250.46495,25.138302,152.45999,155.64706,2.527833,15.219162,25.381592
742.7178,0.015309698,0.0025681716,1014.9117,999.37366,254.08936,24.455736,155.0281,158.54205,2.6064672,15.537991,24.693495
753.3126,0.015404228,0.0026096355,1029.56,1013.7005,257.7425,23.767689,157.62436,161.47289,2.6867766,15.859577,24.000042
763.9795,0.015496846,0.0026497364,1044.3281,1028.1443,261.44055,23.084051,160.23914,164.38199,2.7671943,16.183794,23.311121
774.74274,0.015587514,0.002689506,1059.2214,1042.7108,265.1637,22.398405,162.88182,167.30905,2.8487825,16.51063,22.620314
785.60645,0.015676232,0.0027285449,1074.2438,1057.4036,268.91205,21.713556,165.55968,170.23901,2.931122,16.840094,21.930418
796.55963,0.015762987,0.0027667338,1089.3949,1072.2228,272.69666,21.030293,168.26453,173.16763,3.0140657,17.17212,21.242222
807.59735,0.01584778,0.002804793,1104.6713,1087.1647,276.51804,20.34426,170.99812,176.12256,3.098374,17.506588,20.55137
818.7113,0.015930615,0.0028425523,1120.073,1102.2295,280.38507,19.65647,173.7665,179.09814,3.183866,17.84345,19.858871
829.9119,0.016011478,0.0028794468,1135.6017,1117.419,284.28952,18.970823,176.57166,182.07224,3.2699044,18.182661,19.168623
841.1881,0.01609036,0.0029154841,1151.259,1132.7349,288.24432,18.287283,179.3932,185.04561,3.3564775,18.524172,18.480587
852.5781,0.016167264,0.0029511491,1167.0479,1148.1798,292.21326,17.603065,182.2506,188.03716,3.444132,18.867971,17.791971
864.05994,0.016242178,0.0029860276,1182.9648,1163.7507,296.21582,16.920813,185.1486,191.0308,3.5323658,19.213924,17.105425
875.6402,0.016315103,0.0030200093,1199.0063,1179.4445,300.24234,16.241219,188.0827,194.02258,3.62101,19.561913,16.421633
887.3199,0.016386034,0.003053039,1215.1738,1195.262,304.29288,15.564767,191.0535,197.0102,3.7099733,19.91188,15.741078
899.08374,0.016454974,0.0030861057,1231.4672,1211.2032,308.38165,14.885568,194.04477,200.03293,3.8004377,20.26376,15.057871
910.9358,0.01652192,0.0031186233,1247.887,1227.2694,312.50626,14.207388,197.0715,203.06772,3.8916893,20.617487,14.375772
922.8703,0.016586857,0.0031504612,1264.4336,1243.4606,316.6728,13.531109,200.14677,206.10968,3.983549,20.97298,13.695665
934.8993,0.016649783,0.0031817283,1281.106,1259.7759,320.86826,12.85625,203.25978,209.1631,4.076131,21.330135,13.017065
947.01306,0.016710686,0.0032116214,1297.9056,1276.2168,325.10498,12.187885,206.40895,212.1954,4.1683817,21.688892,12.345043
959.23224,0.016769566,0.003239832,1314.8317,1292.7825,329.36185,11.527937,209.59981,215.19385,4.2598333,22.049156,11.681522
971.54956,0.016826423,0.0032669513,1331.8799,1309.4691,333.64154,10.872901,212.82849,218.18202,4.3511868,22.410776,11.022994
983.9658,0.016881276,0.0032929333,1349.0518,1326.278,337.94495,10.223257,216.09538,221.15755,4.4423375,22.773716,10.369938
996.4818,0.016934143,0.003317725,1366.3479,1343.21,342.27176,9.579484,219.40102,224.11784,4.5331664,23.137934,9.72283
1009.08026,0.016985023,0.0033408927,1383.7697,1360.2664,346.64163,8.944304,222.73096,227.04456,4.6230264,23.50336,9.084391
1021.7725,0.017033929,0.0033628603,1401.3115,1377.4417,351.03705,8.315252,226.09592,229.95477,4.7124147,23.86984,8.452152
1034.5627,0.01708088,0.0033836856,1418.9734,1394.7361,355.4539,7.692177,229.49931,232.85016,4.8013597,24.237316,7.825965
1047.4508,0.017125884,0.003403493,1436.7561,1412.1503,359.89316,7.074473,232.9391,235.73546,4.8899894,24.605719,7.205219
1060.4341,0.017168952,0.0034221024,1454.6603,1429.6853,364.3589,6.463289,236.4115,238.6031,4.9779963,24.974993,6.5910616
1073.4957,0.017210087,0.0034390506,1472.6832,1447.3383,368.865,5.8617477,239.91418,241.4316,5.064632,25.345003,5.9866157
1086.651,0.017249305,0.0034544242,1490.8262,1465.1104,373.39832,5.2693696,243.46416,244.22423,5.149946,25.715714,5.391398
1099.9022,0.01728662,0.0034678641,1509.0884,1483.0013,377.9565,4.688524,247.08035,246.9641,5.2333136,26.087038,4.807778
1113.2615,0.017322054,0.0034800328,1527.4728,1501.0139,382.5289,4.115327,250.74725,249.67911,5.315655,26.458965,4.2318687
1126.6665,0.01735563,0.0034896887,1545.9747,1519.1433,387.1755,3.5576284,254.42793,252.31253,5.394971,26.831366,3.6715207
1140.1442,0.017387373,0.0034966061,1564.6017,1537.3972,391.87735,3.0168812,258.1372,254.8529,5.4707956,27.204313,3.1281843
1153.7112,0.017417315,0.0035011224,1583.3556,1555.7778,396.6196,2.4913375,261.8835,257.31216,5.5435224,27.577805,2.6001093
1167.3848,0.017445503,0.0035040036,1602.2375,1574.2856,401.3846,1.9764137,265.6736,259.72324,5.6142464,27.95184,2.0827124
1181.1599,0.017471971,0.0035052267,1621.2448,1592.9183,406.1748,1.4724531,269.507,262.08337,5.68283,28.32634,1.5763348
1195.0077,0.017496757,0.0035038244,1640.3788,1611.6774,411.0227,0.98568165,273.38776,264.3458,5.7475986,28.70131,1.0872015
1208.9578,0.017519888,0.003499972,1659.6346,1630.5579,415.89328,0.51521957,277.29758,266.51587,5.8086743,29.076612,0.614431
1222.9961,0.017541403,0.0034915952,1679.0076,1649.5554,420.7997,0.07432311,281.20874,268.49222,5.8624144,29.452145,0.17127867
1237.2317,0.017561346,0.003425389,1698.4954,1668.6675,425.72,0.0,285.20377,267.71292,5.8180075,29.827866,0.09475104
1251.5839,0.017579801,0.003348967,1718.0922,1687.8885,430.6521,0.0,289.30948,266.3777,5.7538342,30.20372,0.092596605
1265.9816,0.017597737,0.0032741965,1737.8154,1707.2338,435.66235,0.0,293.45032,265.04916,5.6899495,30.58162,0.0904912
1280.4734,0.017615663,0.0032010295,1757.6687,1726.7062,440.70544,0.0,297.62747,263.7271,5.626349,30.962498,0.08843359
1295.057,0.01763372,0.003129455,1777.6478,1746.3014,445.77933,0.0,301.8401,262.41183,5.563069,31.346544,0.086422846
1309.7322,0.017651904,0.0030594177,1797.7522,1766.0184,450.8832,0.0,306.08792,261.103,5.500075,31.73375,0.08445772
1324.4974,0.017670192,0.0029908943,1817.9799,1785.8557,456.01703,0.0,310.3707,259.80072,5.437385,32.124054,0.08253733
1339.353,0.017688517,0.0029238581,1838.3307,1805.8134,461.1804,0.0,314.68866,258.5049,5.3750186,32.517345,0.0806606
1354.289,0.017706841,0.0028582783,1858.8036,1825.8899,466.38205,0.0,319.03833,257.21564,5.3129783,32.91354,0.07882659
1369.3109,0.017725125,0.0027941125,1879.3966,1846.0841,471.6152,0.0,323.4219,255.93274,5.251246,33.312542,0.07703425
1384.4211,0.017743338,0.0027313381,1900.1106,1866.3962,476.8772,0.0,327.84024,254.65625,5.1898446,33.714302,0.07528265
1399.6182,0.017761448,0.002669936,1920.9427,1886.8239,482.16797,0.0,332.29315,253.38615,5.128794,34.118725,0.073570944
1414.9017,0.01777944,0.0026098613,1941.893,1907.3671,487.48743,0.0,336.7805,252.12239,5.068071,34.52577,0.07189812
1430.2721,0.017797288,0.0025510928,1962.9622,1928.0269,492.8361,0.0,341.30258,250.8649,5.007699,34.935402,0.070263304
1445.7274,0.017814985,0.0024936064,1984.1476,1948.7999,498.21283,0.0,345.85873,249.61372,4.9476833,35.347557,0.06866568
1461.269,0.017832514,0.0024373673,2005.4507,1969.6885,503.61853,0.0,350.4495,248.36877,4.88802,35.762226,0.067104384
1476.8954,0.017849872,0.0023823571,2026.8698,1990.6903,509.0523,0.0,355.0744,247.12999,4.8287272,36.179363,0.065578565
1492.6061,0.017867045,0.0023285467,2048.404,2011.805,514.51434,0.0,359.73346,245.89742,4.7698045,36.598927,0.0640875
1508.3999,0.017884037,0.0022759147,2070.0532,2033.0322,520.0053,0.0,364.4269,244.671,4.711264,37.02091,0.06263029
