con,Omega,ygross,ynet,inv,Eind,scc,Dam,Emissions
77.61829,0.0028556,105.17594,104.8756,27.257309,36.845238,49.846046,0.3003404,39.445236
80.07439,0.003498102,108.65021,108.27014,28.195753,37.487858,51.138454,0.3800695,40.02874
82.6234,0.004116357,112.233246,111.77125,29.14785,38.139095,52.504833,0.46199208,40.622208
85.26532,0.0047068605,115.92323,115.3776,30.11228,38.79726,53.94672,0.5456345,41.22391
87.99294,0.005269565,119.71785,119.08699,31.094042,39.460712,55.4575,0.630861,41.832184
90.808495,0.005806398,123.61583,122.89807,32.08958,40.12809,57.041077,0.7177627,42.44564
93.70451,0.006320307,127.61468,126.80812,33.103603,40.797836,58.690075,0.80656403,43.062687
96.68381,0.0068146703,131.71257,130.81499,34.131184,41.468605,60.405216,0.89757776,43.681965
99.74385,0.007292941,135.90814,134.91698,35.17312,42.139202,62.185932,0.99117005,44.302235
102.8816,0.007758434,140.19885,139.11115,36.229538,42.808197,64.0329,1.0877236,44.922047
106.09201,0.008214214,144.58292,143.3953,37.303272,43.474586,65.939964,1.187635,45.540375
109.36905,0.008663046,149.05923,147.76791,38.398865,44.137276,67.90524,1.291307,46.15609
112.716675,0.009107383,153.62874,152.22958,39.5129,44.79618,69.92662,1.3991557,46.769093
116.13888,0.009549364,158.29198,156.7804,40.641514,45.450966,72.00855,1.511588,47.379017
119.62789,0.009990845,163.04541,161.41646,41.788563,46.100124,74.1479,1.6289614,47.984337
123.179146,0.010433424,167.88814,166.13649,42.957344,46.742817,76.340225,1.7516482,48.584187
126.7975,0.0108784605,172.82265,170.9426,44.1451,47.3796,78.58869,1.8800441,49.179108
130.495,0.011327114,177.84761,175.83313,45.33812,48.009464,80.90469,2.0145001,49.76805
134.2554,0.011780359,182.95767,180.80235,46.54695,48.63086,83.271385,2.155307,50.34946
138.07425,0.012239019,188.156,185.85315,47.7789,49.244087,85.687195,2.302845,50.92362
141.95702,0.01270378,193.4424,190.98494,49.027927,49.84895,88.15352,2.4574497,51.49029
145.90256,0.013175208,198.81708,196.19762,50.295055,50.445225,90.67281,2.6194563,52.049244
149.9086,0.013653777,204.28065,201.49144,51.582844,51.032703,93.242676,2.789202,52.60025
153.96713,0.014139869,209.83177,206.86478,52.897636,51.61088,95.85603,2.9669938,53.142788
158.09174,0.014633803,215.47269,212.3195,54.227764,52.17988,98.52741,3.1531847,53.67695
162.28256,0.015135825,221.20096,217.85289,55.570335,52.73915,101.25245,3.348059,54.202183
166.53337,0.01564614,227.0178,223.46587,56.9325,53.2885,104.021774,3.5519524,54.71827
170.84897,0.016164895,232.92456,229.15935,58.3104,53.828316,106.84753,3.7652013,55.225574
175.2244,0.016692206,238.91975,234.93164,59.70725,54.357765,109.72279,3.988098,55.72325
179.66055,0.01722816,245.00456,240.78358,61.12304,54.877132,112.65262,4.220978,56.211575
184.15887,0.017772809,251.17918,246.71503,62.556145,55.386196,115.639404,4.4641595,56.690292
188.7224,0.018326176,257.4432,252.72527,64.00285,55.884792,118.68043,4.7179494,57.15924
193.34406,0.018888278,263.79593,258.8133,65.469215,56.37254,121.76838,4.9826508,57.618008
198.02698,0.01945911,270.23505,264.9765,66.949524,56.848804,124.90574,5.2585335,58.065952
202.77359,0.020038633,276.76505,271.21906,68.44545,57.314533,128.09212,5.545993,58.504005
207.57596,0.020626817,283.38696,277.5416,69.965645,57.769714,131.33105,5.8453712,58.932148
212.41971,0.021223608,290.0987,283.94174,71.522026,58.213783,134.60905,6.1569414,59.349777
217.3348,0.021828951,296.9029,290.4218,73.087006,58.64728,137.9488,6.4810786,59.757454
222.31703,0.022442771,303.79886,296.98074,74.66371,59.069847,141.34836,6.8180876,60.15477
227.35927,0.023064993,310.78607,303.6178,76.25853,59.481304,144.80646,7.168278,60.54156
232.44972,0.02369554,317.86633,310.33432,77.8846,59.881924,148.30956,7.532014,60.918068
237.60751,0.024334317,325.04214,317.13245,79.52494,60.272137,151.87476,7.9096785,61.284733
242.82552,0.024981232,332.31137,324.00983,81.18433,60.651417,155.49364,8.301549,61.640987
248.10565,0.025636192,339.67386,330.9659,82.86027,61.01973,159.16556,8.707944,61.9868
253.45294,0.026299093,347.12964,338.0004,84.547455,61.376835,162.89856,9.129194,62.321915
258.85977,0.02696983,354.67737,345.1118,86.25204,61.722656,166.68628,9.565589,62.646248
264.33,0.027648307,362.3184,352.3009,87.970924,62.057274,170.53198,10.01749,62.95986
269.8458,0.028334398,370.05545,359.57013,89.72435,62.381126,174.42168,10.485298,63.263187
275.41702,0.029028,377.88702,366.91772,91.5007,62.69404,178.35619,10.969304,63.55605
281.04538,0.029728997,385.8136,374.34378,93.29838,62.99583,182.33702,11.469852,63.83823
286.7265,0.03043727,393.84,381.85257,95.12606,63.287464,186.37035,11.987415,64.11072
292.47235,0.031152697,401.96942,389.44702,96.97468,63.569305,190.46298,12.522431,64.37385
298.26178,0.03187517,410.19858,397.12344,98.861664,63.840874,194.59685,13.0751505,64.62712
304.10953,0.032604564,418.52902,404.88303,100.77351,64.10214,198.78192,13.645954,64.870514
310.03,0.03334077,426.9609,412.7257,102.6957,64.35336,203.03296,14.235205,65.10426
316.02695,0.034083664,435.494,420.65076,104.62382,64.59421,207.36174,14.843231,65.328026
322.1004,0.034833126,444.12717,428.65683,106.55644,64.82472,211.76427,15.470338,65.54186
328.2326,0.035589047,452.85742,436.74066,108.508064,65.04436,216.21928,16.116764,65.745186
334.4311,0.036351297,461.68506,444.90216,110.4711,65.25319,220.73322,16.78285,65.93808
340.68942,0.037119765,470.61154,453.14255,112.453125,65.451546,225.29947,17.468988,66.12087
346.9973,0.03789433,479.63754,461.462,114.46469,65.63933,229.92168,18.175545,66.293434
353.37646,0.03867486,488.764,469.8611,116.48469,65.81677,234.60748,18.90288,66.456
359.80542,0.039461248,497.98978,478.33847,118.53307,65.98392,239.34578,19.651299,66.608604
366.29446,0.040253356,507.31235,486.89133,120.596886,66.1403,244.14095,20.421024,66.750786
372.83997,0.041051067,516.72955,495.51724,122.67727,66.2856,248.99432,21.2123,66.88221
379.4488,0.041854255,526.25006,504.22427,124.77545,66.42126,253.90524,22.025803,67.0043
386.11282,0.042662803,535.8737,513.01184,126.89898,66.54711,258.8684,22.861874,67.1169
392.8221,0.043476574,545.6027,521.8818,129.05965,66.66349,263.87753,23.720936,67.22033
399.5863,0.044295453,555.43805,530.83466,131.24834,66.77052,268.9366,24.603378,67.3147
406.41718,0.04511933,565.3776,539.86816,133.45099,66.86801,274.06006,25.50946,67.39981
413.30432,0.04594807,575.4264,548.98663,135.68234,66.95655,279.23312,26.439734,67.47626
420.23947,0.046781562,585.5789,558.18463,137.94514,67.03554,284.4469,27.394297,67.54343
427.22464,0.047619697,595.8354,567.4619,140.23724,67.10506,289.71774,28.3735,67.6014
434.29456,0.048462357,606.2011,576.82324,142.52864,67.16577,295.0779,29.377935,67.650826
441.44678,0.049309425,616.6701,586.2625,144.81569,67.21692,300.5186,30.40765,67.69094
448.67218,0.05016078,627.2374,595.7747,147.10254,67.25828,306.0237,31.462717,67.72153
455.93875,0.051016323,637.9033,605.35986,149.4211,67.28986,311.5796,32.543484,67.74257
463.25974,0.051875938,648.67694,615.02625,151.76651,67.31272,317.19507,33.650723,67.755135
470.64334,0.052739497,659.5622,624.7773,154.1339,67.32731,322.88058,34.78498,67.759674
478.08203,0.053606905,670.55176,634.6055,156.52348,67.33292,328.61865,35.9462,67.755455
485.5778,0.054478038,681.64166,644.50714,158.92934,67.32916,334.40445,37.1345,67.74209
493.13077,0.055352796,692.83093,654.4808,161.35005,67.31624,340.2475,38.35013,67.71978
500.74384,0.056231055,704.12256,664.529,163.78516,67.29435,346.1625,39.59355,67.688705
508.42184,0.057112712,715.5241,674.6586,166.2368,67.264496,352.13904,40.865524,67.64989
516.1501,0.05799767,727.02997,684.86395,168.71385,67.226036,358.15805,42.166042,67.60267
523.9158,0.058885813,738.63513,695.13995,171.22424,67.1787,364.2125,43.49513,67.54677
531.7115,0.05977702,750.34796,705.4944,173.78291,67.12336,370.30615,44.85356,67.48305
539.6062,0.06064952,762.1764,715.9507,176.34451,67.0608,376.50134,46.22563,67.412315
547.5906,0.061506767,774.11426,726.501,178.9104,66.99054,382.78723,47.613266,67.33406
555.6271,0.062351584,786.15625,737.13824,181.51115,66.912094,389.12793,49.01809,67.24781
563.7092,0.06318628,798.3069,747.8648,184.15558,66.82618,395.51648,50.442043,67.15426
571.8466,0.06401272,810.5659,758.6794,186.8327,66.73262,401.98032,51.886528,67.05324
580.06274,0.06483244,822.94086,769.5876,189.52486,66.63225,408.52966,53.353264,66.94558
588.3383,0.06564665,835.4324,780.58905,192.25076,66.52519,415.15408,54.843334,66.8314
596.69403,0.06645635,848.0386,791.6811,194.98709,66.411354,421.86365,56.357548,66.7106
605.1246,0.06726234,860.7605,802.8638,197.73921,66.29075,428.6688,57.896767,66.5832
613.628,0.06806523,873.5898,814.1287,200.50069,66.163124,435.55234,59.461094,66.44891
622.1605,0.0688656,886.5262,825.47504,203.31448,66.028244,442.48233,61.051155,66.30754
630.7764,0.06966381,899.5809,836.9127,206.13629,65.88711,449.50745,62.668232,66.16004
639.4517,0.07046017,912.7524,848.4397,208.988,65.73986,456.61014,64.31269,66.0066
648.1906,0.071254924,926.0358,860.05115,211.8606,65.58604,463.79318,65.984604,65.84671
656.98206,0.07204828,939.42664,871.74255,214.76054,65.42564,471.04007,67.68407,65.680374
665.82074,0.072840355,952.9294,883.5177,217.69693,65.258736,478.3559,69.41172,65.50769
674.74207,0.073631264,966.54944,895.3812,220.6391,65.08614,485.7627,71.16826,65.32944
683.7427,0.074421085,980.2831,907.32935,223.58665,64.907455,493.25458,72.953735,65.14522
692.8115,0.07520987,994.1275,919.3593,226.54779,64.72271,500.83127,74.768196,64.95506
701.93353,0.07599762,1008.07983,931.46814,229.53459,64.53184,508.46616,76.611664,64.7589
711.1023,0.076784335,1022.154,943.66864,232.56627,64.3357,516.1842,78.48542,64.5576
720.3403,0.077570036,1036.3418,955.9527,235.61244,64.13399,523.99207,80.38907,64.350845
729.64667,0.078354694,1050.6329,968.3109,238.66422,63.926064,531.8701,82.32203,64.137985
738.987,0.07913829,1065.0273,980.7429,241.7559,63.712265,539.8047,84.28445,63.919376
748.3914,0.07992079,1079.5316,993.2546,244.86314,63.492775,547.8154,86.277016,63.695175
757.83954,0.08070216,1094.1448,1005.8448,248.00523,63.267998,555.8937,88.29984,63.465797
767.3529,0.081482336,1108.875,1018.52124,251.16838,63.03829,564.0606,90.35373,63.231583
776.9246,0.08226129,1123.7281,1031.2888,254.36421,62.804176,572.3074,92.43932,62.99308
786.5781,0.08303896,1138.7013,1044.1447,257.56656,62.565563,580.6511,94.556564,62.75018
796.3184,0.08381531,1153.7837,1057.079,260.76053,62.321865,589.0928,96.704735,62.50228
806.1071,0.084590286,1168.9685,1070.0851,263.97794,62.07282,597.5985,98.883385,62.24913
815.91547,0.08536384,1184.2491,1083.1571,267.24158,61.818325,606.15594,101.09206,61.99063
825.7806,0.086135924,1199.6406,1096.3085,270.52786,61.559303,614.7926,103.33215,61.727684
835.7128,0.08690647,1215.1455,1109.5414,273.82858,61.295895,623.51416,105.60401,61.460457
845.70654,0.08767545,1230.7646,1122.8567,277.15015,61.02834,632.3283,107.907845,61.189156
855.75946,0.08844277,1246.501,1136.257,280.49753,60.7569,641.2309,110.244,60.914062
865.8632,0.08920842,1262.3439,1149.7323,283.86905,60.481018,650.20795,112.6117,60.634605
876.04584,0.089972325,1278.2946,1163.2833,287.23755,60.20091,659.2932,115.01113,60.351006
886.2559,0.090734445,1294.3505,1176.9083,290.65237,59.91664,668.43463,117.44218,60.063324
896.492,0.09149472,1310.519,1190.6135,294.12143,59.628708,677.63885,119.90556,59.772053
906.81433,0.092253104,1326.8094,1204.4071,297.59286,59.337494,686.95154,122.40228,59.477577
917.2169,0.093009554,1343.215,1218.2832,301.0663,59.042793,696.3631,124.93182,59.179695
927.6766,0.09376402,1359.7313,1232.2374,304.56085,58.744614,705.8628,127.493866,58.878403
938.15643,0.09451646,1376.3511,1246.2633,308.1069,58.442764,715.4084,130.08783,58.573505
948.6999,0.095266834,1393.0798,1260.3655,311.66565,58.13737,725.04266,132.71431,58.26515
959.31915,0.096015066,1409.9196,1274.5459,315.2268,57.828953,734.7767,135.3735,57.953815
969.9972,0.096761145,1426.872,1288.8062,318.809,57.517456,744.60596,138.06575,57.639492
980.7414,0.09750502,1443.9286,1303.1383,322.39697,57.202667,754.5206,140.7903,57.321926
991.5023,0.09824665,1461.0887,1317.5417,326.03943,56.884655,764.48126,143.54709,57.001194
1002.2988,0.098986,1478.3601,1332.0232,329.72443,56.56405,774.51105,146.33696,56.67794
1013.1805,0.09972302,1495.7491,1346.5885,333.408,56.240852,784.65424,149.16063,56.352154
1024.1263,0.10045765,1513.2476,1361.2302,337.10385,55.915096,794.9161,152.01729,56.023865
1035.1239,0.10118989,1530.8629,1375.955,340.831,55.58702,805.27026,154.90785,55.69332
1046.1975,0.10191966,1548.5887,1390.7571,344.55966,55.25651,815.7228,157.83165,55.360394
1057.3401,0.10264695,1566.4197,1405.6316,348.2915,54.923546,826.27545,160.78822,55.025066
1068.549,0.10337175,1584.3525,1420.5753,352.02643,54.58804,836.92755,163.7773,54.687252
1079.7894,0.10409398,1602.3812,1435.583,355.79358,54.249977,847.6431,166.79823,54.346935
1091.0472,0.10481363,1620.506,1450.6548,359.60757,53.909405,858.4098,169.8511,54.004154
1102.367,0.10553064,1638.7365,1465.7996,363.43246,53.56677,869.2759,172.93689,53.659367
1113.7751,0.106245,1657.0774,1481.0212,367.24606,53.222397,880.2686,176.0562,53.312885
1125.2037,0.106956705,1675.5231,1496.3146,371.11087,52.876007,891.3153,179.20844,52.96444
1136.6305,0.10766567,1694.0751,1511.6814,375.05078,52.52805,902.39075,182.39374,52.61447
1148.1361,0.1083719,1712.74,1527.1271,378.99088,52.178516,913.5734,185.61288,52.26297
1159.7031,0.10907532,1731.5105,1542.6455,382.9424,51.827366,924.83734,188.86505,51.909904
1171.3165,0.10977597,1750.3855,1558.2354,386.9189,51.474785,936.1738,192.15028,51.555447
1183.001,0.11047377,1769.3668,1573.8983,390.89722,51.120888,947.6411,195.46863,51.19972
1194.73,0.11116869,1788.4492,1589.6298,394.8998,50.765427,959.2167,198.81955,50.84246
1206.5168,0.11186073,1807.6278,1605.4252,398.90833,50.408466,970.87964,202.20258,50.48375
1218.352,0.11254985,1826.9039,1621.2864,402.93427,50.05034,982.62354,205.61777,50.12391
1230.2455,0.11323604,1846.279,1637.2137,406.96826,49.69088,994.4686,209.06534,49.76278
1242.1722,0.11391928,1865.7627,1653.2164,411.04416,49.33056,1006.3928,212.54636,49.40082
1254.1471,0.11459952,1885.3527,1669.2922,415.14505,48.969467,1018.4169,216.0605,49.038136
1266.1094,0.11527676,1905.0446,1685.4373,419.32776,48.607414,1030.4767,219.60738,48.67452
1278.1512,0.11595097,1924.8475,1701.6595,423.50833,48.24486,1042.6515,223.18794,48.31044
1290.263,0.116622135,1944.7544,1717.953,427.69003,47.881645,1054.9331,226.8014,47.945732
1302.4231,0.11729019,1964.7625,1734.3152,431.89203,47.517853,1067.3062,230.44737,47.580486
1314.6182,0.117955185,1984.8687,1750.743,436.12488,47.153328,1079.7476,234.12555,47.214535
1326.8672,0.11861707,2005.0745,1767.2385,440.37128,46.788357,1092.3182,237.83606,46.84817
1339.1649,0.11927581,2025.3754,1783.797,444.6321,46.422752,1104.9921,241.57828,46.48121
1351.531,0.11993143,2045.7754,1800.4226,448.8915,46.056866,1117.7686,245.35274,46.113987
1363.9629,0.12058389,2066.272,1817.1129,453.15,45.6906,1130.641,249.15912,45.74643
1376.4559,0.12123317,2086.8604,1833.8636,457.40778,45.32399,1143.604,252.9967,45.378548
1389.0148,0.12187926,2107.5374,1850.6722,461.65744,44.957005,1156.7101,256.86508,45.010323
1401.639,0.12252214,2128.307,1867.5424,465.90317,44.589832,1169.9438,260.76474,44.641937
1414.2437,0.1231618,2149.161,1884.4666,470.22284,44.22237,1183.1823,264.69452,44.27329
1426.8779,0.123798236,2170.0962,1901.4419,474.5641,43.854675,1196.4836,268.65408,43.904438
1439.5553,0.124431424,2191.1196,1918.4756,478.92038,43.486942,1209.8816,272.64413,43.535572
1452.3076,0.1250613,2212.2512,1935.5842,483.2765,43.119637,1223.4049,276.66702,43.16716
1465.1198,0.12568793,2233.4778,1952.7567,487.63693,42.752678,1237.0337,280.7212,42.799118
1477.9878,0.12631126,2254.7935,1969.9877,492.00006,42.385822,1250.7585,284.8058,42.43121
1490.8517,0.12693131,2276.1936,1987.2736,496.42188,42.019238,1264.5344,288.92023,42.063595
1503.7482,0.12754804,2297.6904,2004.6245,500.87637,41.65307,1278.3944,293.06592,41.696415
1516.6804,0.12816145,2319.2905,2022.0469,505.36646,41.287563,1292.3342,297.24365,41.329926
1529.6368,0.12877153,2340.9792,2039.5278,509.891,40.922604,1306.3369,301.4515,40.964
1542.6459,0.12937824,2362.7515,2057.0627,514.41693,40.558006,1320.4292,305.68863,40.598465
1555.7074,0.12998164,2384.6316,2074.6736,518.96606,40.194412,1334.638,309.95834,40.23395
1568.8297,0.13058166,2406.6082,2092.3489,523.51935,39.831516,1348.9644,314.25888,39.87016
1581.9901,0.13117832,2428.67,2110.081,528.0909,39.469288,1363.3625,318.58884,39.50705
1595.2015,0.13177162,2450.82,2127.8716,532.6699,39.107826,1377.8477,322.94855,39.144726
1608.4581,0.13236158,2473.0574,2145.7197,537.2614,38.747154,1392.4459,327.3378,38.783215
1621.7546,0.13294812,2495.3833,2163.627,541.87225,38.387383,1407.1583,331.7565,38.422623
1635.0527,0.13353129,2517.7888,2181.5854,546.5326,38.028423,1421.8993,336.20358,38.062866
1648.3511,0.1341111,2540.2778,2199.5984,551.24725,37.670322,1436.6792,340.67947,37.70398
1661.7312,0.13468753,2562.8608,2217.6755,555.9443,37.31343,1451.5994,345.18536,37.34632
1675.1621,0.13526055,2585.5286,2235.8086,560.6465,36.957527,1466.6323,349.72003,36.989674
1688.6469,0.13583018,2608.2827,2253.9993,565.3524,36.602814,1481.7684,354.28348,36.634228
1702.1619,0.13639641,2631.1265,2272.2502,570.0885,36.24926,1496.9893,358.8762,36.27996
1715.7367,0.13695924,2654.0603,2290.562,574.8255,35.896976,1512.3329,363.49808,35.92698
1729.3529,0.13751869,2677.0781,2308.9297,579.5767,35.545937,1527.7631,368.1483,35.575256
1742.9467,0.13807476,2700.1697,2327.3442,584.39764,35.196056,1543.217,372.8253,35.224712
1756.6257,0.13862741,2723.3545,2345.823,589.19714,34.84757,1558.8413,377.53162,34.87557
1770.3607,0.13917665,2746.6208,2364.3555,593.9947,34.500427,1574.567,382.2655,34.527798
1784.1354,0.13972248,2769.9622,2382.9363,598.80084,34.1546,1590.3866,387.02597,34.181343
1797.9568,0.14026493,2793.3757,2401.563,603.60626,33.810097,1606.2834,391.81268,33.836235
1811.8611,0.14080396,2816.8508,2420.227,608.3661,33.466774,1622.3406,396.62378,33.492313
1825.7972,0.1413396,2840.3877,2438.9285,613.1313,33.124775,1638.4901,401.45926,33.14973
1839.6941,0.14187187,2863.968,2457.6516,617.9575,32.783913,1654.6426,406.3165,32.808304
1853.6055,0.14240073,2887.6177,2476.4185,622.8131,32.44455,1670.8584,411.19882,32.468388
1867.5726,0.1429262,2911.3433,2495.236,627.66345,32.1068,1687.177,416.10727,32.130096
1881.5642,0.1434483,2935.1401,2514.0994,632.53516,31.770596,1703.5615,421.04086,31.793362
1895.5988,0.143967,2959.0176,2533.0166,637.41766,31.436127,1720.0376,426.0009,31.458372
1909.7009,0.14448233,2982.9817,2551.9937,642.2926,31.103498,1736.6366,430.98816,31.12524
1923.7817,0.14499427,3007.0244,2571.0232,647.2415,30.772596,1753.2927,436.0013,30.793842
1937.7319,0.14550284,3031.174,2590.13,652.3979,30.443727,1769.8712,441.04443,30.464495
1951.7527,0.14600803,3055.4158,2609.3008,657.5479,30.116825,1786.58,446.11523,30.137117
1965.8278,0.14650984,3079.7349,2628.5234,662.69574,29.791773,1803.4194,451.21143,29.811604
1979.9779,0.1470083,3104.1492,2647.8137,667.83575,29.468756,1820.4017,456.33572,29.488134
1994.1826,0.14750342,3128.6487,2667.1624,672.9795,29.147652,1837.5314,461.4864,29.16659
2008.4323,0.14799519,3153.2263,2686.564,678.1318,28.828522,1854.7826,466.6623,28.84703
2022.724,0.14848363,3177.8682,2706.0068,683.2829,28.511158,1872.1198,471.8614,28.529247
2037.0546,0.14896876,3202.571,2725.4883,688.43365,28.195576,1889.54,477.083,28.213255
2051.4277,0.14945057,3227.3345,2745.0078,693.5801,27.881844,1907.0516,482.327,27.899117
2065.8518,0.14992905,3252.1533,2764.5608,698.70905,27.569891,1924.6829,487.59225,27.586773
2080.3093,0.15040423,3277.0269,2784.148,703.8388,27.259806,1942.3872,492.8787,27.276302
2094.8242,0.15087612,3301.9563,2803.7698,708.94574,26.951574,1960.1978,498.18634,26.967697
2109.3855,0.15134475,3326.9458,2823.4297,714.04425,26.645308,1978.1117,503.51575,26.661064
2124.0295,0.15181005,3351.9976,2843.1309,719.1013,26.341045,1996.1865,508.86694,26.356443
2138.7124,0.15227214,3377.0996,2862.8616,724.14905,26.038675,2014.3611,514.23816,26.053722
