con,Omega,Theta,ygross,ynet,inv,Eind,scc,carbontax,Abatement,Dam,Emissions
77.80101,0.0028556,0.0008786725,105.17594,104.8756,26.982439,30.152533,36.33947,35.901707,0.09241521,0.3003404,32.752533
79.947586,0.003498102,0.00093239476,108.606,108.22608,28.177593,30.454462,37.306713,37.514973,0.10126367,0.37991485,32.995342
82.21514,0.0041030473,0.0009807034,112.1852,111.7249,29.400196,30.78594,38.32623,38.988644,0.110020414,0.46030122,33.26905
84.6758,0.0046672155,0.0010258091,115.90774,115.36677,30.572622,31.136837,39.39562,40.382523,0.118899204,0.5409664,33.563488
87.31137,0.0051914537,0.0010703192,119.765625,119.14387,31.704971,31.495928,40.509018,41.762527,0.12818745,0.6217577,33.867405
90.09429,0.005678812,0.001113858,123.7415,123.038795,32.80745,31.858337,41.667442,43.12101,0.13783045,0.7027047,34.17589
92.988014,0.006133371,0.0011581439,127.825615,127.04162,33.90648,32.215687,42.86272,44.499874,0.14804046,0.78400195,34.480545
95.98751,0.0065595466,0.001203062,132.01346,131.1475,35.002224,32.566338,44.089977,45.896748,0.15882038,0.8659484,34.779697
99.09649,0.00696167,0.0012491919,136.29529,135.34645,36.080883,32.90546,45.354534,47.325573,0.17025898,0.9488429,35.068493
102.26861,0.0073437826,0.0012945192,140.66962,139.63658,37.187214,33.237934,46.64719,48.73983,0.1820995,1.0330471,35.351784
105.53251,0.007709515,0.0013389734,145.13512,144.0162,38.290855,33.563324,47.973618,50.138733,0.19433206,1.1189214,35.629112
108.87644,0.008062068,0.0013820776,149.68918,148.48238,39.400715,33.881794,49.33075,51.512417,0.20688204,1.2068044,35.90061
112.28709,0.008404227,0.0014250523,154.32997,153.03294,40.52777,34.189194,50.720665,52.88956,0.21992826,1.297024,36.16211
115.75996,0.008738375,0.0014692408,159.05777,157.66786,41.676247,34.481327,52.141857,54.301216,0.23369417,1.3899065,36.409378
119.29184,0.009066535,0.0015140562,163.87029,162.38455,42.846844,34.759083,53.583836,55.734222,0.24810882,1.4857357,36.6433
122.88369,0.009390401,0.0015590568,168.7688,167.18399,44.039658,35.023613,55.046448,57.17901,0.26312014,1.5848066,36.864986
126.54749,0.009711385,0.0016045466,173.75494,172.06754,45.243958,35.27432,56.54235,58.64262,0.2787979,1.687401,37.073826
130.2558,0.010030651,0.0016507092,178.82826,177.03448,46.486454,35.510067,58.066826,60.129707,0.29519343,1.7937639,37.268654
134.05693,0.010349164,0.0016966946,183.98808,182.08397,47.718105,35.73325,59.625862,61.62135,0.3121716,1.9041228,37.45185
137.95322,0.010667705,0.0017449487,189.23396,187.21527,48.935364,35.936024,61.213932,63.1727,0.33020353,2.018692,37.615547
141.88954,0.010986911,0.0017940355,194.56099,192.42337,50.18862,36.1217,62.824383,64.75171,0.34904933,2.1376243,37.76304
145.87161,0.011307285,0.0018433281,199.9711,197.70996,51.4739,36.292397,64.45787,66.34475,0.36861235,2.2611303,37.896416
149.92386,0.011629215,0.0018932166,205.46603,203.07663,52.768303,36.447067,66.11335,67.96091,0.38899174,2.3894088,38.014618
154.03627,0.011953011,0.0019444246,211.04594,208.52333,54.08158,36.58349,67.79315,69.61638,0.4103629,2.5226347,38.11539
158.22502,0.0122789005,0.0019962098,216.71112,214.05014,55.39784,36.703667,69.50735,71.29523,0.4326009,2.6609743,38.200737
162.46422,0.012607047,0.0020487027,222.46182,219.65723,56.74299,36.80738,71.24303,73.0004,0.45575815,2.8045866,38.270416
166.76137,0.0129375635,0.0021027033,228.29927,225.34563,58.11043,36.89206,72.99984,74.74997,0.48004562,2.9536364,38.321827
171.13817,0.013270522,0.0021554478,234.22223,231.114,59.47767,36.966095,74.79674,76.48359,0.5048538,3.1082513,38.36335
175.54993,0.013605947,0.0022083842,240.22934,236.9608,60.887577,37.024567,76.61791,78.23362,0.5305187,3.2685478,38.390053
180.03493,0.013943855,0.0022633707,246.32266,242.88797,62.303284,37.06221,78.4695,80.040726,0.5575195,3.4346876,38.39665
184.5937,0.014284227,0.0023208228,252.50243,248.89561,63.72428,37.07761,80.349525,81.91424,0.58601344,3.6068022,38.38171
189.22232,0.014627017,0.002379768,258.7697,254.98468,65.15553,37.073956,82.25263,83.83308,0.61581194,3.7850294,38.3484
193.90262,0.01497215,0.0024410354,265.12314,261.15366,66.61357,37.04836,84.18343,85.8156,0.6471749,3.969463,38.293827
198.6761,0.015319534,0.0025028142,271.56146,267.40128,68.055916,37.006237,86.146996,87.82286,0.67966783,4.160195,38.22339
203.48875,0.015669052,0.0025651988,278.08163,273.7244,69.53347,36.947,88.12832,89.85722,0.7133347,4.3572755,38.13647
208.36964,0.016020585,0.0026302328,284.6886,280.12772,71.02128,36.864925,90.14215,91.96319,0.74879736,4.560878,38.027355
213.30151,0.016374007,0.0026951972,291.3795,286.60846,72.53447,36.768105,92.19062,94.08255,0.78532517,4.77105,37.904102
218.30391,0.01672918,0.0027603426,298.15848,293.17053,74.057365,36.656406,94.2688,96.221085,0.82301956,4.9879475,37.766575
223.31873,0.017085955,0.0028252008,305.02463,299.81302,75.64726,36.531124,96.37266,98.36933,0.8617559,5.211637,37.61605
228.40802,0.017444195,0.0028942912,311.98453,306.5422,77.24693,36.379063,98.51701,100.62449,0.902974,5.442319,37.439323
233.58345,0.01780377,0.002963957,319.04138,313.36124,78.849,36.211937,100.69556,102.908585,0.9456249,5.6801395,37.248085
238.84271,0.018164508,0.0030349381,326.19174,320.2666,80.45192,36.027107,102.91178,105.237755,0.9899717,5.9251127,37.039696
244.15631,0.018526264,0.003106293,333.43384,327.2565,82.08368,35.82728,105.16004,107.59245,1.0357432,6.177283,36.816845
249.46994,0.018888868,0.003178564,340.77017,334.33337,83.80077,35.61114,107.42942,109.984604,1.0831598,6.4367633,36.578205
254.85904,0.019252164,0.0032516967,348.20322,341.4995,85.53004,35.379,109.72912,112.413765,1.1322511,6.7036653,36.32408
260.3141,0.019616006,0.003323877,355.73297,348.7549,87.2816,35.136677,112.06256,114.841576,1.1824126,6.97806,36.06026
265.85098,0.019980226,0.0033953656,363.36337,356.1033,89.04324,34.88368,114.429886,117.27425,1.2337515,7.2600827,35.786266
271.47382,0.02034468,0.0034666553,371.09534,363.5455,90.811455,34.618587,116.831276,119.72276,1.2864597,7.5498157,35.500656
277.17722,0.020709235,0.003538543,378.9271,371.0798,92.58951,34.338898,119.26475,122.20437,1.3408499,7.84729,35.200912
282.9732,0.021073766,0.003609979,386.8586,378.7061,94.36576,34.04772,121.73461,124.69754,1.3965516,8.152569,34.890133
288.84225,0.021438131,0.0036801812,394.88858,386.42288,96.158554,33.747612,124.24484,127.1858,1.4532614,8.4656725,34.57087
294.73773,0.021802198,0.0037494267,403.00775,394.2213,98.00547,33.43695,126.78694,129.6756,1.5110482,8.786455,34.241486
300.7103,0.022165848,0.0038194116,411.2202,402.10516,99.8591,33.11102,129.36313,132.20332,1.5706192,9.115045,33.897263
306.76794,0.022528965,0.0038914655,419.53073,410.07916,101.71541,32.766026,131.96915,134.79808,1.6325892,9.451592,33.53439
312.87732,0.022891413,0.0039640735,427.9367,418.14066,103.605774,32.40674,134.60585,137.42781,1.6963725,9.796076,33.15763
319.06107,0.023253046,0.0040375898,436.44394,426.2953,105.51298,32.03244,137.27905,140.10086,1.7621815,10.148651,32.766262
325.27777,0.023613725,0.0041114115,445.05194,434.5426,107.478294,31.645239,139.9759,142.80457,1.8297918,10.509335,32.362373
331.59442,0.023973295,0.004185868,453.75824,442.88016,109.431915,31.24396,142.72237,145.54666,1.8993721,10.878079,31.944788
338.012,0.024331609,0.004262127,462.56274,451.3078,111.3723,30.825073,145.51471,148.35258,1.9715011,11.254895,31.509966
344.43185,0.024688512,0.0043373,471.46677,459.82697,113.40072,30.397886,148.32727,151.16086,2.0448928,11.639812,31.067207
350.90317,0.025043849,0.0044125,480.48035,468.4473,115.47712,29.95954,151.17075,153.99614,2.1201196,12.033077,30.613646
357.46542,0.025397472,0.004488463,489.60355,477.16885,117.56165,29.50789,154.05644,156.87456,2.1975675,12.434692,30.14712
364.0979,0.025749244,0.0045647835,498.83508,485.99045,119.67408,29.044298,156.97688,159.78769,2.277074,12.844625,29.668995
370.82648,0.026099015,0.00464186,508.17334,494.91052,121.78677,28.567436,159.93555,162.74489,2.3588693,13.262823,29.177927
377.6474,0.026446652,0.004719745,517.6169,503.92764,123.90182,28.077103,162.92807,165.74802,2.4430194,13.689234,28.673712
384.52127,0.026792007,0.004801633,527.1659,513.04205,126.057335,27.563627,165.95862,168.86642,2.531257,14.123832,28.146675
391.47998,0.027134929,0.004887485,536.81525,522.2488,128.21632,27.026936,169.02562,172.10034,2.6236765,14.566443,27.596724
398.56244,0.027475249,0.004978158,546.5623,531.5454,130.33685,26.464437,172.14427,175.46925,2.7208736,15.016937,27.02127
405.73102,0.027812766,0.0050652702,556.40137,540.9263,132.45535,25.902182,175.30093,178.79202,2.8183236,15.475061,26.446352
412.87918,0.02814727,0.005149809,566.34094,550.39996,134.68636,25.33766,178.4861,182.09041,2.9165475,15.940951,25.86946
420.10608,0.028478585,0.0052334606,576.3884,559.97375,136.93706,24.766146,181.70222,185.4014,3.0165064,16.414728,25.285852
427.39246,0.028806569,0.0053153224,586.53973,569.64355,139.2233,24.190378,184.95163,188.70567,3.117648,16.896198,24.698267
434.72852,0.029131107,0.0053945165,596.79553,579.4102,141.55608,23.613304,188.234,191.98439,3.2194235,17.385315,24.109646
442.16083,0.02945207,0.005473262,607.1655,589.2832,143.8971,23.028563,191.55573,195.28624,3.3231761,17.882282,23.513618
449.67035,0.02976938,0.0055506113,617.6497,599.2627,146.26602,22.439154,194.90036,198.59102,3.4283333,18.387049,22.913181
457.23196,0.030082934,0.00563225,628.24243,609.343,148.67911,21.82748,198.27213,202.02412,3.5384183,18.899374,22.29073
464.91467,0.030392647,0.0057170466,638.94824,619.52893,151.07242,21.197313,201.69145,205.56192,3.6528966,19.419327,21.650028
472.65317,0.03069839,0.005799369,649.7691,629.8222,153.51648,20.566362,205.14006,209.08061,3.7682507,19.946865,21.008785
480.36664,0.031000005,0.005878983,660.70374,640.22186,156.09143,19.935461,208.59482,212.57501,3.8842661,20.481817,20.367825
488.17902,0.031297375,0.0059628114,671.7524,650.72833,158.66911,19.283262,212.08894,216.19963,4.005533,21.024086,19.705793
496.1201,0.0315904,0.00605087,682.92395,661.3501,161.22827,18.610056,215.64876,219.95638,4.1322846,21.573841,19.02298
504.1498,0.031878933,0.0061431406,694.2118,672.081,163.80246,17.916008,219.24266,223.84575,4.264641,22.13073,18.31954
512.2712,0.032162815,0.00623798,705.61774,682.9231,166.39186,17.206327,222.8739,227.8325,4.4016294,22.694653,17.600687
520.52563,0.032441866,0.0063288826,717.1331,693.868,168.95093,16.501238,226.55075,231.77066,4.5386515,23.265139,16.886631
528.8416,0.032715872,0.00642032,728.75665,704.91473,171.54732,15.786933,230.25089,235.76163,4.6788507,23.84191,16.163563
537.19147,0.032984696,0.0065115923,740.48944,716.06464,174.2105,15.065841,233.98282,239.7901,4.821765,24.42482,15.433907
545.6208,0.03324821,0.006600525,752.33453,727.3208,176.8993,14.344935,237.74245,243.80722,4.965803,25.013775,14.704634
554.2171,0.033490162,0.0066849384,764.2939,738.6976,179.5423,13.631148,241.54854,247.76332,5.1092577,25.596327,13.982666
562.8867,0.033713263,0.006765605,776.3601,750.1864,182.22429,12.922117,245.39043,251.67566,5.252546,26.173632,13.265644
571.59546,0.033919744,0.006843916,788.5356,761.78864,184.97958,12.213766,249.2589,255.57617,5.3966713,26.746925,12.549481
580.3171,0.03411146,0.006921415,800.83026,773.5128,187.84196,11.501771,253.1366,259.49976,5.5428786,27.317488,11.829853
589.1462,0.034289915,0.0069989,813.24445,785.3584,190.71558,10.783734,257.0639,263.4659,5.691817,27.886086,11.104356
598.12213,0.034456342,0.007074836,825.77734,797.32404,193.561,10.064611,261.03125,267.4391,5.8422394,28.453266,10.377943
607.20795,0.034611724,0.0071485024,838.4313,809.41174,196.41779,9.34684,265.02896,271.4027,5.9935284,29.019554,9.653047
616.36084,0.03475685,0.0072192643,851.2072,821.62195,199.32956,8.632558,269.05945,275.34167,6.14509,29.585283,8.931802
625.6152,0.03489239,0.0072870073,864.09467,833.9443,202.25223,7.9221535,273.12405,279.2532,6.2966638,30.15033,8.214594
634.979,0.035018872,0.007351683,877.095,846.3801,205.1788,7.216134,277.22336,283.13504,6.4481235,30.714876,7.501925
644.43304,0.035136748,0.007413127,890.2093,858.93024,208.12976,6.5151153,281.35266,286.98343,6.5992346,31.27906,6.794408
653.9195,0.035246402,0.007468194,903.4403,871.5972,211.16847,5.82912,285.51382,290.72232,6.7470665,31.843018,6.102062
663.5112,0.03534814,0.0075180917,916.7899,884.3831,214.22299,5.1547885,289.7128,294.37814,6.8925104,32.406815,5.4215245
673.21564,0.035442255,0.007564338,930.26385,897.2932,217.29019,4.4875813,293.93634,297.9867,7.0368304,32.97065,4.7482524
683.0382,0.035529025,0.007606354,943.86066,910.3262,220.36372,3.829643,298.19394,301.532,7.179338,33.534447,4.084387
692.9815,0.035608657,0.007645151,957.5749,923.477,223.4353,3.1778944,302.4873,305.0385,7.320804,34.097954,3.426846
703.06146,0.035681367,0.0076781316,971.4043,936.7432,226.4893,2.5409043,306.82367,308.43985,7.45857,34.661034,2.7841954
713.20996,0.035747327,0.0077021476,985.3484,950.1249,229.59686,1.92888,311.19058,311.65598,7.589299,35.22357,2.1666393
723.4145,0.035806704,0.0077211894,999.3989,963.6137,232.75887,1.3296746,315.5837,314.7821,7.7165484,35.78518,1.5620279
733.67426,0.035859708,0.0077280262,1013.5606,977.2146,235.98853,0.7667328,320.0342,317.63293,7.8328233,36.34599,0.9938029
744.04785,0.035906516,0.007722866,1027.8414,990.9352,239.23454,0.24008496,324.5323,320.20703,7.9378815,36.906204,0.46199203
754.6748,0.035947368,0.0076227086,1042.2473,1004.78125,242.44727,0.019725958,329.15094,320.3541,7.9447474,37.46605,0.23658724
765.53613,0.035982545,0.0074631968,1056.7761,1018.75073,245.61145,0.0,333.87656,318.91235,7.8869286,38.025497,0.21193029
776.4416,0.036013134,0.007301108,1071.4089,1032.8242,248.8418,0.0,338.6462,317.32178,7.822472,38.584793,0.20711152
787.4367,0.036040533,0.007142396,1086.1534,1047.0078,252.09288,0.0,343.4535,315.73907,7.7577376,39.145546,0.20240226
798.53674,0.03606586,0.006987033,1101.0112,1061.3022,255.35017,0.0,348.3016,314.1643,7.692801,39.708916,0.1978001
809.6564,0.03608996,0.0068349256,1115.9828,1075.7072,258.69827,0.0,353.18246,312.59738,7.6276593,40.275776,0.1933026
820.8114,0.03611344,0.006686021,1131.0677,1090.221,262.12036,0.0,358.10266,311.0383,7.5623426,40.84675,0.1889073
832.06476,0.036136758,0.0065402547,1146.2683,1104.8458,265.5551,0.0,363.06488,309.487,7.496886,41.422417,0.18461207
843.4157,0.036160223,0.0063975495,1161.5847,1119.5815,269.00317,0.0,368.06958,307.94345,7.431296,42.003166,0.1804144
854.864,0.036184058,0.006257843,1177.0178,1134.4285,272.4654,0.0,373.11667,306.40747,7.3655925,42.58928,0.17631216
866.4113,0.036208414,0.006121089,1192.567,1149.3861,275.93924,0.0,378.2065,304.87927,7.299809,43.180958,0.17230324
878.0497,0.036233358,0.005987226,1208.2299,1164.4517,279.4301,0.0,383.3371,303.35867,7.2339454,43.778225,0.16838545
889.7666,0.036258936,0.0058561843,1224.007,1179.6257,282.95114,0.0,388.5121,301.84567,7.1680098,44.38119,0.16455683
901.45404,0.036285155,0.0057279174,1239.9071,1194.917,286.6184,0.0,393.71167,300.34027,7.1020856,44.990223,0.16081521
913.25604,0.036312006,0.005602369,1255.9381,1210.3325,290.29572,0.0,398.95816,298.8423,7.0362287,45.605633,0.15715867
925.12775,0.03633945,0.0054794713,1272.0957,1225.8684,294.02353,0.0,404.24533,297.35178,6.970412,46.22726,0.15358528
937.0815,0.03636745,0.0053591738,1288.3783,1241.5232,297.7882,0.0,409.5732,295.86874,6.904643,46.855034,0.15009306
949.1452,0.03639596,0.0052414304,1304.787,1257.2981,301.56268,0.0,414.94888,294.39304,6.83895,47.488976,0.14668027
961.3155,0.03642492,0.005126192,1321.3196,1273.1906,305.34854,0.0,420.37137,292.92477,6.7733374,48.12896,0.14334513
973.5896,0.03645429,0.0050133946,1337.9753,1289.2004,309.1475,0.0,425.83966,291.46375,6.7077985,48.774944,0.14008576
985.9652,0.036484018,0.004902991,1354.7532,1305.3262,312.96094,0.0,431.35327,290.01004,6.642342,49.426834,0.13690053
998.433,0.03651405,0.004794941,1371.6517,1321.5673,316.79745,0.0,436.90952,288.56363,6.5769887,50.084564,0.13378775
1010.99506,0.036544338,0.004689195,1388.6699,1337.9219,320.65308,0.0,442.50873,287.12442,6.511745,50.748024,0.13074575
1023.65326,0.036574837,0.0045856903,1405.8073,1354.3901,324.52603,0.0,448.15128,285.69238,6.446597,51.417175,0.12777293
1036.4098,0.036605515,0.0044844057,1423.063,1370.971,328.41315,0.0,453.83798,284.26752,6.3815913,52.091953,0.1248677
1049.2825,0.036636323,0.0043852776,1440.4365,1387.6641,332.29626,0.0,459.5655,282.8497,6.316714,52.772297,0.122028455
1062.3185,0.036667224,0.0042882636,1457.9226,1404.4646,336.1234,0.0,465.3847,281.43893,6.251956,53.457973,0.11925388
1075.3895,0.036698192,0.0041933195,1475.5084,1421.3599,340.01022,0.0,471.23877,280.0353,6.1872783,54.148495,0.1165423
1088.5006,0.036729194,0.0041004186,1493.1888,1438.3452,343.94687,0.0,477.12347,278.6386,6.122699,54.84362,0.11389247
1101.6774,0.036760207,0.0040094946,1510.9741,1455.4305,347.91763,0.0,483.04434,277.2489,6.058243,55.543724,0.11130284
1114.932,0.03679121,0.0039205244,1528.8684,1472.6195,351.91406,0.0,489.0032,275.86612,5.993966,56.248917,0.108772084
1128.265,0.036822174,0.0038334571,1546.8727,1489.9133,355.93683,0.0,495.0004,274.4902,5.9298697,56.959213,0.1062988
1141.6774,0.036853082,0.0037482565,1564.9862,1507.3118,359.98453,0.0,501.0359,273.12112,5.8659697,57.674564,0.10388178
1155.1685,0.036883917,0.0036648896,1583.208,1524.813,364.05612,0.0,507.10965,271.7589,5.8022823,58.39491,0.10151975
1168.7487,0.036914673,0.0035833125,1601.5399,1542.4196,368.14395,0.0,513.2205,270.40353,5.738817,59.120316,0.09921143
1182.4281,0.036945324,0.0035034928,1619.9806,1560.13,372.23605,0.0,519.3666,269.05487,5.6755905,59.85071,0.09695557
1196.1877,0.036975868,0.003425389,1638.5305,1577.9445,376.35165,0.0,525.5509,267.71292,5.6126046,60.58609,0.09475104
1210.0283,0.037006296,0.003348967,1657.1893,1595.8629,380.49005,0.0,531.7738,266.3777,5.549872,61.32644,0.092596605
1223.9479,0.037036594,0.0032741965,1675.9556,1613.8838,384.6519,0.0,538.0344,265.04916,5.4874077,62.071686,0.0904912
1237.9144,0.037066754,0.0032010295,1694.831,1632.009,388.87064,0.0,544.3235,263.7271,5.425204,62.821884,0.08843359
1251.884,0.037096772,0.003129455,1713.8171,1650.24,393.19153,0.0,550.6277,262.41183,5.363313,63.577087,0.086422846
1265.9553,0.037126645,0.0030594177,1732.9224,1668.5846,397.52435,0.0,556.97675,261.103,5.3017335,64.33759,0.08445772
1280.1129,0.03715636,0.0029908943,1752.1431,1687.0399,401.88116,0.0,563.3617,259.80072,5.240474,65.10326,0.08253733
1294.36,0.03718592,0.0029238581,1771.4777,1705.6038,406.25687,0.0,569.7746,258.5049,5.1795497,65.87403,0.0806606
1308.7013,0.03721532,0.0028582783,1790.9204,1724.2709,410.641,0.0,576.2169,257.21564,5.1189494,66.64967,0.07882659
1323.1854,0.03724456,0.0027941125,1810.467,1743.0371,414.9816,0.0,582.7123,255.93274,5.058649,67.430046,0.07703425
1337.7587,0.037273634,0.0027313381,1830.1187,1761.9034,419.3324,0.0,589.25116,254.65625,4.998673,68.21517,0.07528265
1352.401,0.037302546,0.002669936,1849.871,1780.8661,423.71033,0.0,595.82385,253.38615,4.939037,69.00489,0.073570944
1367.1213,0.037331283,0.002609812,1869.7245,1799.9253,428.10666,0.00036592904,602.43256,252.11948,4.879629,69.79922,0.07226405
1381.9209,0.037359852,0.0025508485,1889.6819,1819.0836,432.52246,0.0018404198,609.0782,250.85013,4.820292,70.598236,0.07210373
1396.7949,0.037388265,0.0024931682,1909.7413,1838.3395,436.96127,0.003352745,615.759,249.58675,4.761307,71.401924,0.07201844
1411.7452,0.037416507,0.0024367382,1929.905,1857.6946,441.4227,0.004889769,622.4759,248.3293,4.702673,72.2103,0.071994156
1426.7706,0.037444584,0.00238154,1950.1708,1877.1475,445.90628,0.0064503774,629.2286,247.07784,4.6444097,73.02334,0.07202895
1441.8726,0.0374725,0.0023275444,1970.5392,1896.698,450.41083,0.008033443,636.0169,245.83228,4.586517,73.84103,0.07212095
1457.0338,0.03750026,0.0022749202,1991.0094,1916.346,454.95248,0.00809374,642.8438,244.60521,4.5293875,74.66337,0.070724025
1472.2638,0.037527863,0.0022234446,2011.5791,1936.0889,459.5201,0.008120728,649.7091,243.3845,4.472635,75.490265,0.06932695
1487.5717,0.037555315,0.0021730945,2032.252,1955.9302,464.10803,0.008185845,656.6111,242.16959,4.4162755,76.32186,0.06800043
