con,Omega,ygross,ynet,inv,Eind,scc,Dam,Emissions
77.58634,0.0017051001,105.17594,104.996605,27.410261,36.845238,50.142563,0.17933552,39.445236
80.04422,0.0018450696,108.59634,108.395966,28.351751,37.46927,51.366734,0.20036778,40.01015
82.594444,0.0019929602,112.12162,111.89816,29.303719,38.101166,52.68433,0.22345392,40.584274
85.23219,0.0021489777,115.74853,115.49979,30.267593,38.738796,54.091496,0.24874099,41.165443
87.94999,0.002313328,119.472496,119.19612,31.24614,39.37984,55.57533,0.27637908,41.751316
90.74927,0.0024862152,123.29318,122.98664,32.237373,40.02335,57.13531,0.30653337,42.340897
93.625046,0.0026678424,127.20617,126.8668,33.241745,40.667233,58.77112,0.33936602,42.93209
96.569954,0.0028584101,131.21107,130.83601,34.26607,41.310715,60.47366,0.37505507,43.524075
99.59483,0.0030581194,135.30731,134.89354,35.2987,41.952915,62.25266,0.41378596,44.115944
102.688515,0.0032671671,139.49089,139.03516,36.34665,42.592022,64.09706,0.45574006,44.70588
105.842575,0.003485749,143.75964,143.25853,37.41596,43.22704,65.99848,0.50111,45.292828
109.070305,0.0037140576,148.11435,147.56424,38.49394,43.85749,67.96945,0.5501053,45.87631
112.36301,0.003952284,152.55217,151.94925,39.586235,44.482273,70.001854,0.60292953,46.455185
115.71746,0.004200613,157.07353,156.41371,40.69625,45.1011,72.09318,0.6598051,47.02916
119.13667,0.00445923,161.67538,160.95444,41.81777,45.712753,74.24568,0.72094774,47.59697
122.61642,0.004728317,166.35689,165.5703,42.95389,46.316494,76.4574,0.78658813,48.157867
126.160164,0.005008048,171.11943,170.26245,44.102295,46.912666,78.7319,0.85697436,48.712173
129.76094,0.005298596,175.96085,175.0285,45.267563,47.500137,81.06016,0.9323454,49.258724
133.41774,0.0056001297,180.88004,179.86708,46.449345,48.07862,83.441605,1.0129517,49.797226
137.13376,0.005912812,185.87778,184.7787,47.64494,48.647823,85.881676,1.0990603,50.32735
140.9035,0.0062368037,190.95483,189.76389,48.860382,49.207924,88.374756,1.1909478,50.849262
144.72624,0.0065722563,196.11078,194.8219,50.09564,49.75857,90.921005,1.2888902,51.36259
148.60466,0.006919322,201.34566,199.95248,51.34782,50.29949,93.5248,1.3931755,51.867043
152.54152,0.0072781434,206.65685,205.15277,52.61127,50.82997,96.18896,1.5040781,52.361874
156.53487,0.007648858,212.04704,210.42514,53.890278,51.350315,98.90946,1.6219178,52.847385
160.5856,0.008031602,217.5159,215.76889,55.18328,51.860554,101.6859,1.7470009,53.323586
164.69365,0.008426501,223.06174,221.18213,56.488453,52.35988,104.52228,1.8796302,53.789646
168.8529,0.0088336775,228.68594,226.66582,57.81291,52.848778,107.412415,2.020138,54.246033
173.06343,0.009253248,234.38913,232.22028,59.156837,53.326977,110.35713,2.1688607,54.692463
177.32928,0.009685321,240.171,237.84486,60.515587,53.794502,113.36088,2.3261335,55.128944
181.64772,0.010130003,246.02965,243.53735,61.88965,54.2507,116.421524,2.4922812,55.5548
186.0217,0.010587393,251.9663,249.29863,63.276936,54.695885,119.53832,2.6676662,55.970333
190.44418,0.01105758,257.9814,255.12877,64.684586,55.12999,122.71005,2.85265,56.375454
194.91821,0.011540652,264.0738,261.0262,66.10802,55.552673,125.93772,3.0475838,56.76982
199.44165,0.012036687,270.24545,266.99258,67.550934,55.964417,129.2287,3.25286,57.153885
204.01947,0.012545758,276.4979,273.02902,69.009544,56.365337,132.57367,3.4688754,57.527763
208.65038,0.013067933,282.83057,279.13452,70.48417,56.75529,135.97276,3.6960104,57.89129
213.33897,0.01360327,289.24304,285.30838,71.96944,57.13423,139.43857,3.9346514,58.2444
218.0744,0.014151824,295.7339,291.5487,73.474304,57.50172,142.9597,4.1851735,58.586643
222.86887,0.01471364,302.30615,297.85812,74.98926,57.858334,146.54878,4.448024,58.918587
227.70825,0.015288765,308.95383,304.2303,76.52205,58.20291,150.1875,4.723522,59.239063
232.59525,0.015877226,315.68427,310.67206,78.07683,58.536926,153.88145,5.012191,59.549522
237.51932,0.016479056,322.49738,317.18292,79.66362,58.86022,157.62712,5.314452,59.849792
242.51291,0.017094277,329.39413,323.7634,81.250465,59.17306,161.4538,5.6307545,60.14012
247.55382,0.017722908,336.37207,330.41058,82.85674,59.474766,165.33563,5.961491,60.419846
252.64082,0.018364953,343.43002,337.12296,84.48211,59.76534,169.27002,6.3070755,60.68893
257.77814,0.019020412,350.5708,343.9028,86.124664,60.045166,173.26428,6.668001,60.94775
262.9682,0.01968929,357.7926,350.74792,87.779724,60.313946,177.31956,7.044682,61.196007
268.2114,0.02037158,365.09583,357.65826,89.44688,60.571884,181.44685,7.4375787,61.433903
273.50662,0.021067262,372.48544,364.6382,91.13159,60.819588,185.63887,7.847248,61.662
278.8574,0.021776317,379.9578,371.6837,92.8263,61.05668,189.89824,8.27408,61.879936
284.249,0.02249872,387.50784,378.7894,94.540436,61.282288,194.2125,8.7184305,62.086826
289.69647,0.023234438,395.1436,385.96265,96.2662,61.497803,198.59451,9.18094,62.28405
295.17642,0.02398343,402.86255,393.20053,98.02409,61.702667,203.02257,9.662025,62.47103
300.70673,0.024745658,410.6616,400.4995,99.79279,61.89666,207.51877,10.162091,62.64756
306.2862,0.025521072,418.5473,407.86554,101.57933,62.0806,212.07094,10.681776,62.81442
311.9028,0.026309613,426.51752,415.29596,103.39318,62.254417,216.67648,11.22151,62.971558
317.57953,0.027111223,434.57068,422.7889,105.20943,62.41782,221.35915,11.781742,63.11865
323.29343,0.027925838,442.711,430.3479,107.05448,62.57145,226.10321,12.363075,63.256348
329.06207,0.02875339,450.93826,437.97226,108.91021,62.715435,230.91669,12.966004,63.384766
334.8755,0.029593805,459.2513,445.66034,110.78485,62.849438,235.78008,13.590995,63.503544
340.74652,0.030446997,467.6478,453.40936,112.66281,62.97327,240.72398,14.238471,63.612503
346.6642,0.031312887,476.127,461.21814,114.553894,63.087086,245.73222,14.908912,63.71178
352.6256,0.032191385,484.68457,469.0819,116.456276,63.190224,250.81134,15.602668,63.800716
358.62738,0.0330824,493.33054,477.00995,118.3826,63.28401,255.94939,16.320559,63.88062
364.68124,0.03398583,502.0634,485.00034,120.3191,63.368507,261.15353,17.063042,63.95155
370.7652,0.034901574,510.88037,493.04987,122.284645,63.44334,266.40973,17.83053,64.01312
376.89786,0.03582952,519.7842,501.16055,124.26269,63.5089,271.73312,18.62362,64.06573
383.09094,0.03676957,528.77325,509.33047,126.23955,63.56509,277.1381,19.442764,64.10926
389.33057,0.037721604,537.8434,517.55505,128.22452,63.611496,282.61313,20.288315,64.143295
395.606,0.0386855,546.9983,525.83734,130.2314,63.648663,288.14615,21.160902,64.168365
401.92993,0.039661143,556.2392,534.1781,132.2481,63.676807,293.7477,22.061083,64.18469
408.2691,0.0406484,565.5676,542.5782,134.30908,63.69621,299.37732,22.989418,64.19255
414.66446,0.041647147,574.9875,551.0409,136.37642,63.707375,305.08878,23.946589,64.19244
421.1021,0.042657256,584.4911,559.5583,138.45619,63.709404,310.86108,24.932785,64.183426
427.58365,0.043678574,594.0774,568.12897,140.5453,63.702545,316.69043,25.948454,64.165794
434.1027,0.044710983,603.74866,576.75446,142.65178,63.687016,322.59616,26.994196,64.139725
440.67072,0.045754332,613.5055,585.43494,144.76424,63.663002,328.56738,28.070534,64.10542
447.2659,0.04680848,623.34674,594.1688,146.90292,63.630466,334.58994,29.177912,64.062836
453.86777,0.04787329,633.2777,602.9607,149.0929,63.59008,340.642,30.317085,64.01261
460.52887,0.048948597,643.29846,611.80994,151.281,63.541813,346.77386,31.488556,63.95473
467.23834,0.050034262,653.4077,620.7149,153.47661,63.48584,352.9811,32.692772,63.889374
474.00156,0.051130123,663.603,629.6729,155.67139,63.421818,359.27228,33.930103,63.81617
480.81067,0.05223603,673.8843,638.6833,157.87257,63.35006,365.63412,35.201042,63.73545
487.65137,0.053351805,684.2493,647.74335,160.09203,63.270256,372.0524,36.50594,63.646885
494.54233,0.05447731,694.69196,656.847,162.30466,63.182076,378.5492,37.844948,63.550148
501.46082,0.05561239,705.2223,666.00323,164.54237,63.086582,385.0953,39.219097,63.44628
508.4314,0.056754127,715.83484,675.2082,166.77681,62.9834,391.7166,40.62658,63.334915
515.4124,0.057902325,726.531,684.4632,169.05072,62.872772,398.38025,42.067833,63.216297
522.4219,0.0590568,737.3153,693.7718,171.34993,62.755096,405.1023,43.543484,63.090813
529.4677,0.060217325,748.1868,703.13293,173.66524,62.63062,411.88492,45.053806,62.9587
536.53516,0.061383724,759.143,712.544,176.00883,62.49905,418.72797,46.599022,62.81967
543.65985,0.0625558,770.1901,722.01025,178.35037,62.3611,425.65683,48.179855,62.674435
550.83575,0.063733354,781.3269,731.5304,180.69467,62.216797,432.66132,49.796585,62.523006
558.06335,0.06491617,792.54083,741.09204,183.0287,62.06523,439.73175,51.44872,62.364475
565.32574,0.06610409,803.8327,750.696,185.37025,61.906506,446.88068,53.13663,62.198948
572.615,0.06729688,815.21204,760.3509,187.73586,61.74176,454.07437,54.861225,62.02755
579.93616,0.06849437,826.68036,770.05743,190.12125,61.570946,461.32364,56.62295,61.85024
587.28656,0.06969635,838.229,779.8075,192.52098,61.39357,468.63858,58.42151,61.666508
594.6493,0.07090263,849.8685,789.6106,194.96126,61.210728,476.00235,60.257908,61.477455
602.0628,0.072113045,861.5945,799.4622,197.3994,61.022003,483.43695,62.1322,61.28267
609.5164,0.07332738,873.40375,809.3593,199.84285,60.82752,490.93326,64.0444,61.082264
616.9879,0.07454543,885.2954,819.3007,202.31277,60.627007,498.47696,65.99473,60.87596
624.50543,0.07576705,897.2756,829.2916,204.78622,60.421333,506.10196,67.983925,60.664623
632.04083,0.076992005,909.341,839.329,207.28813,60.21017,513.77704,70.011986,60.447933
639.60187,0.07822013,921.4825,849.404,209.80211,59.99315,521.51227,72.078476,60.2255
647.2006,0.07945124,933.7072,859.523,212.32236,59.770905,529.32623,74.18419,59.997974
654.86804,0.08068513,946.0255,869.6954,214.82729,59.544075,537.2337,76.33019,59.765984
662.5585,0.08192166,958.4327,879.9163,217.35783,59.31258,545.1964,78.516396,59.529434
670.25604,0.08316059,970.92126,890.17896,219.92294,59.075974,553.19617,80.742386,59.287903
677.96234,0.08440179,983.4928,900.48425,222.5219,58.834675,561.24786,83.008545,59.041786
685.7225,0.08564506,996.14886,910.83356,225.11113,58.588604,569.37915,85.31523,58.791008
693.4914,0.08689024,1008.8916,921.22876,227.73743,58.338306,577.5409,87.662834,58.536106
701.2852,0.08813713,1021.7247,931.6727,230.38751,58.083885,585.753,90.05188,58.277184
709.1106,0.08938557,1034.6459,942.1635,233.05287,57.825436,594.04456,92.482414,58.014347
716.9924,0.090635374,1047.6494,952.6953,235.70284,57.562744,602.41656,94.95409,57.747356
724.93036,0.0918864,1060.7349,963.2678,238.33743,57.295815,610.87836,97.46711,57.47623
732.9201,0.09313845,1073.8958,973.8749,240.95474,57.024406,619.4301,100.020996,57.200718
740.93085,0.09439137,1087.1305,984.5148,243.58391,56.748688,628.0376,102.61573,56.92099
748.94714,0.095644996,1100.4313,995.1805,246.23329,56.468395,636.682,105.25073,56.636784
756.9829,0.09689916,1113.816,1005.8882,248.90524,56.184513,645.3868,107.92783,56.349068
765.0637,0.09815371,1127.2842,1016.63715,251.5734,55.897186,654.16235,110.64713,56.058002
773.1586,0.099408455,1140.8329,1027.4244,254.26578,55.606426,662.9802,113.40843,55.763584
781.2744,0.10066327,1154.4576,1038.2462,256.9717,55.312008,671.8527,116.21149,55.46559
789.4194,0.10191799,1168.1667,1049.1095,259.69016,55.01447,680.8185,119.0572,55.16456
797.59283,0.103172444,1181.9574,1060.012,262.41925,54.71387,689.83856,121.945435,54.86055
805.8089,0.10442649,1195.8307,1070.9543,265.14542,54.41038,698.9171,124.876396,54.553726
814.0279,0.10567998,1209.7866,1081.9364,267.90848,54.104008,708.02826,127.85023,54.24409
822.27325,0.10693277,1223.8085,1092.9432,270.67007,53.794125,717.1965,130.86523,53.931023
830.5307,0.10818471,1237.9022,1103.9802,273.44946,53.481224,726.4214,133.92209,53.615005
838.78186,0.10943564,1252.0817,1115.0593,276.27747,53.166027,735.66516,137.02237,53.29677
847.107,0.11068543,1266.3568,1126.1896,279.08255,52.848843,745.0345,140.16724,52.976616
855.4827,0.11193392,1280.7119,1137.3568,281.87402,52.529404,754.4859,143.3551,52.654274
863.83264,0.11318099,1295.1436,1148.5579,284.72516,52.20746,763.9548,146.58562,52.329487
872.1729,0.11442649,1309.6545,1159.7953,287.62238,51.88327,773.4411,149.85918,52.002525
880.5809,0.11567033,1324.2578,1171.0806,290.49963,51.557407,783.03015,153.17734,51.673946
889.0161,0.11691231,1338.9385,1182.4,293.38394,51.22958,792.6674,156.53839,51.34347
897.5009,0.118152335,1353.6958,1193.7535,296.2527,50.899586,802.3825,159.94232,51.010887
906.0,0.11939029,1368.5299,1205.1409,299.1408,50.567726,812.14954,163.38919,50.6765
914.53314,0.12062601,1383.4418,1216.5627,302.02963,50.234028,821.9837,166.87906,50.34033
923.04333,0.1218594,1398.4236,1228.0125,304.96906,49.89834,831.8222,170.41104,50.00222
931.5729,0.123090334,1413.4823,1239.4963,307.92346,49.56108,841.72015,173.98601,49.6626
940.1678,0.12431868,1428.6233,1251.0188,310.851,49.22247,851.7375,177.60457,49.32168
948.78436,0.12554432,1443.8324,1262.5674,313.78302,48.88217,861.80304,181.26497,48.979126
957.44727,0.12676717,1459.1165,1274.1483,316.70108,48.54046,871.9418,184.96806,48.63521
966.1319,0.12798707,1474.4784,1285.764,319.6322,48.197525,882.15533,188.71416,48.29012
974.78595,0.1292039,1489.9136,1297.4108,322.62488,47.85339,892.37744,192.50264,47.943882
983.4991,0.1304176,1505.434,1309.0988,325.59973,47.50835,902.70154,196.33508,47.59678
992.2401,0.13162807,1521.0258,1320.8162,328.57605,47.162327,913.0811,200.20969,47.248753
1000.9981,0.13283513,1536.6941,1332.567,331.56885,46.815277,923.5188,204.12695,46.899734
1009.79987,0.13403875,1552.4396,1344.3525,334.55264,46.467438,934.02716,208.08707,46.549976
1018.59515,0.13523878,1568.2477,1356.1599,337.5647,46.11853,944.5603,212.0879,46.199192
1027.3883,0.13643517,1584.1188,1367.9894,340.601,45.76866,955.1279,216.1295,45.84749
1036.2249,0.13762778,1600.0598,1379.8472,343.62228,45.417957,965.7638,220.21268,45.494995
1045.0411,0.13881652,1616.067,1391.7302,346.6891,45.066505,976.39105,224.3368,45.14179
1053.8813,0.1400013,1632.1462,1403.6436,349.7623,44.714703,987.06726,228.50258,44.788273
1062.7886,0.14118202,1648.2974,1415.5876,352.79892,44.36239,997.8666,232.70996,44.434284
1071.7074,0.14235862,1664.5261,1427.5665,355.85913,44.009884,1008.71796,236.95963,44.08015
1080.606,0.143531,1680.8217,1439.5718,358.96585,43.657047,1019.6013,241.25,43.725716
1089.5227,0.14469905,1697.1742,1451.5947,362.07202,43.303577,1030.5259,245.57951,43.37068
1098.5044,0.1458627,1713.6047,1463.6536,365.1492,42.95022,1041.5575,249.951,43.015793
1107.4896,0.14702189,1730.107,1475.7434,368.25375,42.596832,1052.6282,254.36362,42.660923
1116.4946,0.1481765,1746.6816,1487.8645,371.36984,42.243565,1063.7471,258.8172,42.306194
1125.4626,0.14932646,1763.3401,1500.0267,374.5641,41.890602,1074.8439,263.31332,41.95181
1134.4968,0.15047173,1780.0795,1512.2279,377.73114,41.538105,1086.0535,267.85165,41.597923
1143.5632,0.1516122,1796.8944,1524.4631,380.89984,41.185837,1097.3247,272.43112,41.244293
1152.6575,0.15274782,1813.771,1536.7213,384.06393,40.83371,1108.6477,277.04956,40.890835
1161.7952,0.15387851,1830.7062,1548.9999,387.20456,40.481632,1120.0463,281.70633,40.537453
1170.937,0.1550042,1847.6906,1561.2906,390.3536,40.129517,1131.4731,286.39978,40.18407
1180.0642,0.15612486,1864.7407,1573.6083,393.5441,39.77777,1142.9207,291.13235,39.83109
1189.2218,0.15724035,1881.8676,1585.962,396.74023,39.426716,1154.4498,295.9055,39.478825
1198.4249,0.15835069,1899.0571,1598.3401,399.91507,39.07609,1166.055,300.717,39.127014
1207.6097,0.15945573,1916.3053,1610.7396,403.12976,38.725906,1177.6692,305.56586,38.77567
1216.7675,0.16055547,1933.6136,1623.1614,406.3939,38.376244,1189.2856,310.45227,38.424873
1226.0023,0.16164985,1950.9803,1635.6047,409.6024,38.027134,1201.0256,315.3757,38.07466
1235.2399,0.16273883,1968.4048,1648.0691,412.82913,37.678715,1212.8197,320.33588,37.725155
1244.5426,0.16382231,1985.9056,1660.57,416.0273,37.33124,1224.725,325.33563,37.37663
1253.8322,0.16490027,2003.4677,1673.0952,419.26324,36.984634,1236.654,330.37238,37.02899
1263.1206,0.16597265,2021.0853,1685.6404,422.51974,36.638706,1248.6042,335.4449,36.682053
1272.4265,0.16703936,2038.7587,1698.2057,425.77924,36.29359,1260.606,340.55298,36.33595
1281.7507,0.16810039,2056.4827,1710.787,429.0363,35.94932,1272.6376,345.69553,35.99072
1291.0336,0.16915573,2074.261,1723.388,432.3544,35.6059,1284.6102,350.8732,35.64636
1300.3551,0.17020531,2092.113,1736.0244,435.66925,35.263836,1296.659,356.08875,35.30337
1309.7502,0.17124905,2110.028,1748.688,438.9377,34.922855,1308.8494,361.3403,34.961494
1319.0981,0.17228699,2128.005,1761.3774,442.2792,34.58306,1321.0085,366.62753,34.620823
1328.4982,0.173319,2146.0361,1774.0873,445.58914,34.244373,1333.272,371.94885,34.281273
1337.9257,0.1743451,2164.1238,1786.8193,448.89365,33.90687,1345.6195,377.30438,33.942932
1347.4022,0.17536524,2182.2812,1799.5848,452.1826,33.57082,1358.0594,382.6963,33.60606
1356.8752,0.17637938,2200.4978,1812.3754,455.50018,33.23609,1370.5292,388.12247,33.270527
1366.3632,0.17738749,2218.7563,1825.1769,458.81372,32.902412,1383.034,393.57962,32.93607
1375.8463,0.17838952,2237.0554,1837.9882,462.14188,32.56994,1395.5637,399.06726,32.60283
1385.3141,0.17938548,2255.408,1850.8206,465.50635,32.238785,1408.1147,404.58746,32.270927
1394.7915,0.18037534,2273.8257,1863.6837,468.8921,31.90928,1420.6978,410.14203,31.940695
1404.3156,0.18135904,2292.2986,1876.5693,472.25385,31.581196,1433.3622,415.72906,31.611897
1413.872,0.18233654,2310.8237,1889.476,475.6041,31.254595,1446.094,421.3476,31.284595
1423.3909,0.18330784,2329.3992,1902.4019,479.01105,30.9295,1458.7762,426.99713,30.958815
1432.9487,0.18427287,2348.0403,1915.36,482.41132,30.606136,1471.5375,432.6801,30.63479
1442.546,0.18523169,2366.7417,1928.3461,485.79996,30.28441,1484.3805,438.3956,30.312412
1452.175,0.18618421,2385.4968,1941.355,489.17987,29.964336,1497.2992,444.14185,29.991701
1461.8313,0.1871305,2404.3054,1954.3865,492.55524,29.645924,1510.2975,449.91882,29.672665
1471.4895,0.18807049,2423.1685,1967.4421,495.95264,29.32923,1523.3053,455.72647,29.355368
1481.169,0.18900418,2442.076,1980.5132,499.34424,29.014107,1536.3513,461.56253,29.039646
1490.8423,0.18993151,2461.0195,1993.5944,502.7521,28.700558,1549.405,467.42517,28.725515
1500.5338,0.19085252,2480.0117,2006.6952,506.16135,28.388754,1562.5259,473.31653,28.413143
1510.247,0.19176714,2499.0544,2019.8179,509.57108,28.078754,1575.7012,479.23654,28.102592
1519.8842,0.19267543,2518.1487,2032.9634,513.0793,27.770582,1588.8096,485.18533,27.793877
1529.5652,0.19357729,2537.2988,2046.1354,516.57025,27.464275,1602.0007,491.16345,27.487041
1539.2927,0.19447277,2556.4983,2059.329,520.03644,27.159824,1615.275,497.16934,27.182074
1549.063,0.19536187,2575.745,2072.5427,523.4797,26.857248,1628.6249,503.20242,26.878992
1558.8693,0.19624454,2595.0352,2085.7737,526.9045,26.556475,1642.0416,509.26147,26.577723
1568.6564,0.1971208,2614.3647,2099.0193,530.36285,26.257488,1655.469,515.34564,26.278252
1578.449,0.19799067,2633.7178,2112.2664,533.8173,25.960205,1668.9121,521.4516,25.9805
1588.2499,0.19885404,2653.0896,2125.5117,537.26196,25.664623,1682.3882,527.57764,25.684456
1598.0338,0.19971101,2672.502,2138.7737,540.7399,25.37098,1695.8998,533.7281,25.39036
1607.8546,0.20056161,2691.995,2152.0842,544.2295,25.079624,1709.5132,539.9109,25.098564
1617.7218,0.20140575,2711.539,2165.4194,547.6976,24.790377,1723.2073,546.1195,24.808886
1627.6069,0.20224345,2731.124,2178.772,551.16516,24.503065,1736.9464,552.352,24.521154
1637.4247,0.20307474,2750.755,2192.146,554.72144,24.217768,1750.6055,558.6088,24.235445
1647.2267,0.2038996,2770.4324,2205.542,558.3155,23.934536,1764.2585,564.8901,23.95181
1657.0612,0.20471805,2790.1477,2218.9539,561.8927,23.65327,1777.9772,571.1936,23.670153
1666.9259,0.20553008,2809.9038,2232.3843,565.45844,23.374063,1791.7648,577.5198,23.390562
1676.8438,0.2063357,2829.711,2245.8406,568.9968,23.096962,1805.6484,583.87036,23.113085
1686.8065,0.20713489,2849.5605,2259.317,572.51056,22.821959,1819.6135,590.2434,22.837717
1696.8063,0.2079277,2869.4468,2272.8093,576.0032,22.549011,1833.6492,596.6375,22.56441
1706.8196,0.20871416,2889.367,2286.3152,579.4956,22.278076,1847.7277,603.05176,22.293125
