con,Omega,ygross,ynet,inv,Eind,scc,Dam,Emissions
77.78156,0.0017051001,105.17594,104.996605,27.215044,36.845238,49.08248,0.17933552,39.445236
80.25696,0.0018450696,108.64216,108.44171,28.18476,37.48508,50.27016,0.20045234,40.025963
82.83617,0.0019929602,112.22541,112.00175,29.16558,38.136433,51.566784,0.22366077,40.61954
85.51116,0.0021489803,115.91786,115.668755,30.157597,38.795467,52.947674,0.2491052,41.222115
88.27635,0.0023133385,119.7184,119.44145,31.165108,39.460896,54.408516,0.27694917,41.83237
91.13159,0.002486243,123.62817,123.32079,32.189205,40.13209,55.95876,0.30736965,42.449642
94.06708,0.0026679004,127.640076,127.299545,33.232464,40.80595,57.585823,0.340531,43.07081
97.08818,0.002858518,131.75366,131.37706,34.288864,41.48154,59.292103,0.3766202,43.6949
100.193985,0.0030583015,135.96587,135.55003,35.356052,42.157104,61.073082,0.41582462,44.320137
103.38082,0.003267454,140.27603,139.81769,36.436867,42.83176,62.927082,0.45834547,44.94561
106.63837,0.0034861793,144.68152,144.17714,37.538776,43.504234,64.84594,0.50438565,45.570026
109.97185,0.003714677,149.18079,148.62662,38.65478,44.17327,66.83003,0.55415845,46.192085
113.371704,0.003953146,153.77528,153.16739,39.795692,44.83892,68.87685,0.6078962,46.811836
116.849304,0.004201782,158.4613,157.79547,40.946167,45.49958,70.994644,0.66581976,47.42764
120.39672,0.004460778,163.23824,162.51006,42.113342,46.15464,73.177,0.72816956,48.038857
124.00687,0.0047303257,168.1058,167.31062,43.303757,46.803425,75.415825,0.7951952,48.644794
127.69049,0.005010611,173.06224,172.19508,44.504597,47.44529,77.7212,0.86714756,49.244793
131.43881,0.0053018183,178.10918,177.16487,45.72605,48.080074,80.08495,0.9443025,49.83866
135.25406,0.005604127,183.24742,182.22047,46.96641,48.70788,82.51327,1.0269418,50.426483
139.13683,0.0059177135,188.47517,187.35982,48.223007,49.32762,85.00589,1.115342,51.007153
143.08372,0.006242749,193.79002,192.58023,49.496517,49.938534,87.553635,1.2097825,51.579872
147.09885,0.0065794,199.19278,197.8822,50.78336,50.540558,90.16774,1.3105689,52.144573
151.1771,0.006927833,204.68361,203.2656,52.0885,51.133373,92.84351,1.4180138,52.70092
155.3165,0.0072882017,210.26355,208.73112,53.41461,51.71709,95.578186,1.5324432,53.248993
159.52036,0.0076606614,215.93129,214.2771,54.75674,52.290943,98.37144,1.6541766,53.788013
163.78069,0.0080453595,221.68713,219.90358,56.1229,52.85506,101.22366,1.7835526,54.318092
168.10689,0.008442438,227.53232,225.61137,57.50449,53.409275,104.13978,1.9209276,54.83904
172.5011,0.008852034,233.46674,231.40009,58.899,53.95361,107.1225,2.0666556,55.35087
176.94823,0.009274279,239.48857,237.26749,60.319252,54.48717,110.15798,2.2210836,55.85266
181.4526,0.009709299,245.59944,243.21483,61.76222,55.010376,113.25051,2.3845983,56.34482
186.02776,0.010157211,251.80067,249.24309,63.215332,55.523235,116.41323,2.5575926,56.827335
190.66005,0.010618133,258.0926,255.35211,64.692055,56.02576,119.63413,2.740461,57.300205
195.35176,0.011092169,264.47382,261.54022,66.18848,56.517403,122.91708,2.9335885,57.762867
200.10898,0.011579425,270.94766,267.81024,67.701256,56.998714,126.26729,3.1374183,58.215866
204.92346,0.012079996,277.51013,274.15778,69.23433,57.468838,129.67722,3.3523211,58.658314
209.80424,0.012593965,284.16415,280.5854,70.78116,57.928143,133.1556,3.5787532,59.090572
214.74623,0.01312142,290.9114,287.09424,72.348015,58.37687,136.70023,3.8171706,59.51286
219.74648,0.013662438,297.7486,293.68063,73.93415,58.81434,140.30643,4.067972,59.924507
224.80286,0.014217085,304.67828,300.34662,75.54378,59.240837,143.97466,4.331637,60.325764
229.93001,0.014785427,311.70047,307.09186,77.16185,59.656315,147.71196,4.608625,60.71657
235.1095,0.015367522,318.8144,313.91498,78.80549,60.060516,151.5111,4.8993874,61.09666
240.35124,0.01596342,326.0218,320.81738,80.46611,60.4538,155.3823,5.204423,61.46639
245.65483,0.01657316,333.32205,327.79788,82.14301,60.83588,159.32048,5.5242004,61.82545
251.01582,0.017196788,340.7151,334.85587,83.84005,61.206776,163.32329,5.8592052,62.173843
256.43042,0.017834328,348.20615,341.99615,85.56572,61.567177,167.38596,6.210023,62.512253
261.91013,0.018485807,355.78983,349.2128,87.30268,61.916252,171.51994,6.577062,62.839844
267.44748,0.01915125,363.4653,356.50452,89.05699,62.25372,175.72223,6.9608154,63.156303
273.03998,0.019830657,371.23566,363.8738,90.833824,62.58008,179.99304,7.361847,63.462143
278.6942,0.020524045,379.10266,371.322,92.62777,62.89572,184.33328,7.7807207,63.757736
284.40228,0.02123141,387.06946,378.8514,94.44915,63.20087,188.73378,8.21803,64.043274
290.16724,0.021952743,395.13547,386.46115,96.29392,63.49563,193.20355,8.674307,64.318886
295.99194,0.022688031,403.2958,394.1458,98.15387,63.779057,197.74106,9.149988,64.583595
301.87207,0.02343726,411.55078,401.90518,100.03309,64.05132,202.35045,9.645622,64.83756
307.8191,0.024200397,419.90543,409.74356,101.92447,64.312965,207.03879,10.161879,65.08134
313.82608,0.024977418,428.35913,417.65982,103.83371,64.56411,211.79854,10.699306,65.31501
319.8897,0.025768284,436.90717,425.6488,105.75908,64.8038,216.62355,11.2583475,65.53762
326.0126,0.026572961,445.5564,433.7166,107.70403,65.033325,221.52199,11.839752,65.750465
332.1931,0.02739139,454.30505,441.861,109.66791,65.25228,226.50008,12.444048,65.95311
338.42847,0.02822352,463.15207,450.0803,111.651825,65.460526,231.54932,13.071781,66.14542
344.70584,0.029069293,472.09753,458.374,113.66819,65.65822,236.64896,13.723542,66.327545
351.0465,0.029928647,481.14005,466.74017,115.69369,65.84495,241.82684,14.399871,66.49905
357.44254,0.030801512,490.28113,475.17972,117.73719,66.02108,247.08377,15.1014,66.66031
363.89728,0.03168781,499.52722,483.69827,119.80103,66.18762,252.41678,15.828923,66.81232
370.40866,0.03258747,508.8692,492.28647,121.87782,66.34327,257.82217,16.582758,66.953766
376.96906,0.0335004,518.31476,500.95102,123.98195,66.48896,263.29083,17.36375,67.08556
383.58536,0.034426503,527.8662,509.6936,126.10826,66.62524,268.82538,18.172586,67.20829
390.2608,0.035365704,537.51184,518.5024,128.2416,66.75054,274.43628,19.009485,67.320335
396.98618,0.03631789,547.2566,527.38135,130.39519,66.86556,280.1275,19.875204,67.4224
403.78705,0.037282966,557.10376,536.3333,132.54626,66.97077,285.91495,20.770481,67.51495
410.63275,0.03826082,567.0529,545.357,134.72426,67.06614,291.76154,21.69591,67.59794
417.51752,0.039251342,577.1013,554.44934,136.93182,67.15144,297.67145,22.652,67.67115
424.45132,0.040254407,587.24915,563.6098,139.15846,67.226746,303.65512,23.639366,67.734634
431.43066,0.041269913,597.4981,572.83936,141.4087,67.29233,309.71017,24.658695,67.788666
438.47018,0.042297713,607.8552,582.1443,143.67412,67.34905,315.8408,25.710888,67.8341
445.5743,0.043337706,618.3168,591.5204,145.94606,67.39639,322.06158,26.796432,67.87042
452.72772,0.044389755,628.87335,600.9578,148.23013,67.43369,328.35742,27.915535,67.89694
459.93286,0.045453712,639.52844,610.4595,150.52664,67.46129,334.72974,29.068943,67.914
467.1658,0.046529446,650.2897,620.03204,152.8662,67.480064,341.1488,30.25762,67.92249
474.43558,0.047616817,661.15234,629.6704,155.23482,67.48963,347.62497,31.481972,67.92199
481.7786,0.048715685,672.11993,639.3771,157.5985,67.490395,354.19653,32.742783,67.912926
489.16263,0.0498259,683.1948,649.154,159.99136,67.482574,360.83447,34.040794,67.89549
496.58792,0.050947316,694.3696,658.9933,162.40535,67.46574,367.54184,35.376266,67.86927
504.07324,0.052079786,705.64594,668.89606,164.8228,67.43994,374.33038,36.74989,67.8343
511.6199,0.05322314,717.02405,678.86176,167.24187,67.4055,381.20892,38.16227,67.79089
519.2034,0.054377202,728.5064,688.89233,169.68884,67.36256,388.1486,39.61414,67.73919
526.8203,0.055541854,740.0953,698.989,172.16875,67.31151,395.15033,41.106266,67.67958
534.49945,0.056716915,751.78735,709.1483,174.64891,67.25212,402.2398,42.63906,67.61182
542.2132,0.05789945,763.5784,719.3676,177.15445,67.184166,409.39853,44.210773,67.535675
549.973,0.05908925,775.4726,729.65045,179.67744,67.108086,416.62872,45.82209,67.451614
557.8038,0.060286146,787.4668,739.9934,182.18959,67.023636,423.94815,47.473335,67.35935
565.682,0.06148991,799.56757,750.4022,184.72014,66.9317,431.34726,49.16534,67.25979
573.58856,0.06270035,811.76984,760.8715,187.28302,66.83174,438.8111,50.898254,67.15236
581.5509,0.06391729,824.0689,771.39667,189.84576,66.72359,446.35815,52.67225,67.03691
589.53485,0.06514048,836.4685,781.9805,192.44572,66.60771,453.952,54.48796,66.91392
597.5379,0.06636974,848.9712,792.6252,195.08727,66.48439,461.59406,56.346,66.78364
605.6063,0.06760487,861.58356,803.3363,197.72998,66.35414,469.32913,58.247246,66.64658
613.7382,0.06884568,874.3021,814.1102,200.372,66.217064,477.1577,60.191925,66.50286
621.9142,0.07009195,887.1182,824.93835,203.02417,66.07235,485.06604,62.179844,66.35163
630.142,0.071343474,900.0357,835.8241,205.68202,65.92042,493.05948,64.21168,66.19336
638.3773,0.07260009,913.06903,846.7802,208.40288,65.76267,501.10403,66.288895,66.029396
646.6815,0.07386157,926.2069,857.79584,211.11433,65.59815,509.24643,68.4111,65.85882
655.01794,0.075127706,939.4431,868.86487,213.84698,65.42679,517.45337,70.57821,65.681526
663.3875,0.07639834,952.7772,879.9866,216.59909,65.24831,525.72156,72.7906,65.49726
671.7978,0.07767325,966.2099,891.16125,219.36348,65.063286,534.0712,75.04866,65.306564
680.26794,0.07895223,979.75323,902.3995,222.13153,64.872375,542.5122,77.3537,65.11014
688.80066,0.0802351,993.39496,913.6898,224.88919,64.67502,551.03845,79.70515,64.90737
697.36395,0.081521675,1007.1299,925.02704,227.66306,64.47103,559.63855,82.10292,64.698105
705.9291,0.08281174,1020.96564,936.4177,230.48863,64.2609,568.27277,84.54794,64.4828
714.5065,0.08410512,1034.9136,947.872,233.36555,64.04559,576.9522,87.04153,64.26245
723.1858,0.08540162,1048.972,959.3882,236.20236,63.824993,585.7806,89.58391,64.03692
731.882,0.08670103,1063.1292,970.95483,239.07274,63.5987,594.66156,92.174385,63.80582
740.62476,0.088003196,1077.3854,982.572,241.94727,63.366543,603.62006,94.81336,63.56895
749.41437,0.08930791,1091.7395,994.2386,244.82417,63.12892,612.66266,97.50097,63.32672
758.2402,0.09061498,1106.2,1005.9617,247.72151,62.88621,621.7819,100.23829,63.079506
767.10016,0.09192424,1120.7634,1017.738,250.63782,62.638466,630.95886,103.02533,62.827377
775.99036,0.09323553,1135.4257,1029.5636,253.57323,62.385586,640.20013,105.862015,62.570206
784.8659,0.09454862,1150.1802,1041.4321,256.56622,62.127213,649.453,108.74795,62.30763
793.8166,0.095863365,1165.0443,1053.3593,259.54272,61.864433,658.82556,111.68506,62.040745
802.8186,0.09717954,1180.0126,1065.3395,262.52087,61.597164,668.30676,114.67307,61.76947
811.7872,0.098497,1195.0774,1077.3657,265.5786,61.32514,677.7742,117.71154,61.493526
820.8551,0.09981559,1210.257,1089.4545,268.59933,61.0493,687.376,120.80252,61.21386
829.98016,0.10113513,1225.535,1101.5903,271.6101,60.76902,697.06757,123.94465,60.929836
839.13916,0.10245542,1240.9069,1113.7692,274.63004,60.48423,706.8303,127.137634,60.641388
848.291,0.10377633,1256.3834,1126.0005,277.70953,60.195454,716.6351,130.38287,60.349033
857.47754,0.10509767,1271.9698,1138.289,280.81128,59.903046,726.51996,133.68106,60.053146
866.7232,0.10641925,1287.6531,1150.622,283.89877,59.60662,736.49255,137.03108,59.7533
876.0057,0.10774096,1303.4318,1162.9988,286.99313,59.306244,746.5468,140.433,59.449585
885.29663,0.1090626,1319.3077,1175.4205,290.12387,59.002,756.6453,143.88713,59.142086
894.59344,0.11038402,1335.2877,1187.8933,293.29996,58.694344,766.7931,147.39442,58.831245
903.9634,0.11170507,1351.3741,1200.4188,296.45544,58.383568,777.0611,150.95535,58.517357
913.38336,0.11302558,1367.5559,1212.9869,299.60373,58.069298,787.42413,154.5688,58.200047
922.8375,0.11434541,1383.8295,1225.5948,302.75723,57.751328,797.8644,158.23456,57.8791
932.3211,0.11566437,1400.1931,1238.2407,305.91956,57.430016,808.3667,161.95244,57.55488
941.8545,0.11698236,1416.6458,1250.9231,309.0686,57.105236,818.95526,165.72256,57.22727
951.3951,0.118299216,1433.1864,1263.6416,312.24655,56.77711,829.5756,169.54483,56.896362
960.9725,0.11961476,1449.8309,1276.4097,315.4371,56.44635,840.26654,173.42117,56.56289
970.56146,0.1209289,1466.582,1289.23,318.66852,56.113403,851.0171,177.35216,56.227295
980.1773,0.12224147,1483.4271,1302.0907,321.91345,55.777534,861.8336,181.33632,55.88884
989.8001,0.12355229,1500.3546,1314.9823,325.18222,55.438694,872.68915,185.37224,55.547466
999.448,0.12486127,1517.3861,1327.9233,328.47546,55.097668,883.6129,189.46277,55.203964
1009.1413,0.12616827,1534.5248,1340.9164,331.77512,54.754677,894.6382,193.60832,54.85856
1018.8793,0.12747315,1551.744,1353.9382,335.05908,54.408966,905.7401,197.80566,54.510483
1028.6722,0.12877576,1569.0526,1366.9966,338.32437,54.060883,916.92725,202.05594,54.160095
1038.4601,0.13007602,1586.448,1380.0891,341.629,53.71055,928.1502,206.35886,53.807503
1048.2783,0.13137375,1603.9514,1393.2343,344.9559,53.358692,939.4514,210.71712,53.453445
1058.1439,0.13266882,1621.5618,1406.431,348.2872,53.005367,950.83795,215.13068,53.097965
1068.0155,0.13396114,1639.2584,1419.6615,351.64594,52.650085,962.27515,219.59692,52.740578
1077.8901,0.13525058,1657.0442,1432.9281,355.03793,52.292854,973.73505,224.1162,52.381287
1087.8026,0.13653702,1674.9297,1446.2397,358.43713,51.93441,985.29254,228.6899,52.020836
1097.7384,0.13782032,1692.9119,1459.5944,361.85593,51.57445,996.9277,233.31766,51.65891
1107.7318,0.13910042,1710.9854,1472.9866,365.2548,51.213013,1008.6569,237.99878,51.295555
1117.7822,0.14037716,1729.1462,1486.4136,368.63138,50.850185,1020.478,242.73265,50.930843
1127.7944,0.14165045,1747.3812,1499.8639,372.0694,50.485672,1032.2909,247.51736,50.564503
1137.7867,0.14292017,1765.7119,1513.356,375.56924,50.120014,1044.1226,252.35582,50.197052
1147.8226,0.14418618,1784.1528,1526.9027,379.08,49.753834,1056.0386,257.2502,49.829117
1157.9163,0.14544843,1802.6929,1540.494,382.57785,49.387043,1068.0499,262.19885,49.460613
1168.0631,0.1467068,1821.326,1554.125,386.0619,49.01929,1080.1742,267.20093,49.09119
1178.2756,0.14796117,1840.0526,1567.7964,389.52075,48.650787,1092.4045,272.25635,48.721054
1188.5328,0.14921145,1858.8649,1581.5007,392.968,48.28148,1104.7263,277.36392,48.350147
1198.7838,0.15045758,1877.754,1595.2318,396.448,47.911087,1117.0685,282.5223,47.978188
1208.9667,0.15169944,1896.7126,1608.9825,400.01575,47.53968,1129.3644,287.73022,47.605255
1219.1688,0.15293692,1915.7582,1622.7678,403.59918,47.167732,1141.717,292.99014,47.23182
1229.4257,0.15416993,1934.894,1636.5914,407.1658,46.795486,1154.1555,298.30246,46.858116
1239.7411,0.1553984,1954.1272,1650.459,410.71777,46.423023,1166.7256,303.6682,46.48423
1250.1132,0.15662226,1973.4448,1664.3593,414.24612,46.05028,1179.4258,309.0854,46.110092
1260.498,0.15784137,1992.8341,1678.2823,417.78436,45.67689,1192.1807,314.55167,45.735348
1270.8949,0.15905572,2012.2953,1692.228,421.33328,45.303123,1204.9799,320.06708,45.36025
1281.3716,0.16026515,2031.8475,1706.2133,424.84155,44.92939,1217.89,325.63434,44.985214
1291.8385,0.16146967,2051.4722,1720.2216,428.3831,44.555405,1230.8373,331.25052,44.60996
1302.3179,0.16266915,2071.1836,1734.2657,431.9478,44.18152,1243.8551,336.91766,44.234837
1312.784,0.16386352,2090.9893,1748.3522,435.56818,43.807987,1256.8912,342.63684,43.860096
1323.2577,0.16505274,2110.8704,1762.4655,439.20767,43.434486,1269.9545,348.40494,43.48541
1333.7233,0.16623664,2130.8186,1776.5984,442.87512,43.06093,1283.0175,354.2201,43.11069
1344.1919,0.16741525,2150.856,1790.77,446.5782,42.687836,1296.1003,360.0861,42.736465
1354.6633,0.16858852,2170.9827,1804.98,450.31662,42.31526,1309.2185,366.00275,42.362785
1365.2043,0.16975632,2191.2092,1819.2378,454.0335,41.943584,1322.4578,371.97165,41.99003
1375.8164,0.17091858,2211.531,1833.5393,457.7229,41.57257,1335.8146,377.99176,41.617958
1386.4374,0.17207526,2231.9365,1847.8754,461.4379,41.20224,1349.2454,384.06104,41.246593
1397.0703,0.17322628,2252.4053,1862.2295,465.1592,40.83213,1362.7252,390.1758,40.875477
1407.696,0.17437164,2272.9336,1876.5983,468.90225,40.462326,1376.2213,396.33514,40.504684
1418.3678,0.1755113,2293.544,1891.0011,472.63333,40.09339,1389.8032,402.54288,40.13479
1429.0623,0.17664513,2314.2324,1905.4344,476.37228,39.72515,1403.4432,408.7979,39.76561
1439.8055,0.17777312,2335.0017,1919.9012,480.09558,39.357872,1417.1948,415.10056,39.397404
1450.5555,0.17889515,2355.8389,1934.3909,483.83533,38.991245,1430.9908,421.44812,39.02988
1461.3342,0.18001124,2376.7554,1948.9125,487.5783,38.625607,1444.8483,427.84268,38.663364
1472.1235,0.18112132,2397.7388,1963.4573,491.33365,38.2608,1458.7554,434.28162,38.297703
1482.9602,0.18222539,2418.7935,1978.028,495.0677,37.896957,1472.7493,440.76556,37.93302
1493.7653,0.18332331,2439.917,1992.6233,498.85788,37.534122,1486.7302,447.2936,37.569363
1504.5883,0.18441512,2461.1267,2007.2579,502.66965,37.172604,1500.7733,453.869,37.207043
1515.4496,0.18550074,2482.4287,2021.9365,506.48672,36.812466,1514.9102,460.49234,36.846123
1526.2617,0.18658018,2503.7878,2036.6307,510.36902,36.45337,1529.0035,467.15723,36.48626
1537.1222,0.18765335,2525.2197,2051.3538,514.2317,36.09547,1543.192,473.8659,36.127617
1548.0353,0.18872026,2546.7249,2066.1062,518.0709,35.73895,1557.472,480.61856,35.770367
1558.9932,0.18978079,2568.2952,2080.882,521.8889,35.38363,1571.8306,487.41306,35.414326
1569.9485,0.19083503,2589.9243,2095.676,525.7276,35.02952,1586.2322,494.24826,35.059517
1580.9198,0.19188285,2611.631,2110.504,529.58417,34.67695,1600.7067,501.12726,34.70626
1591.891,0.19292426,2633.4207,2125.37,533.4791,34.326,1615.2186,508.05075,34.354652
1602.877,0.19395922,2655.2876,2140.27,537.39307,33.976593,1629.7798,515.0175,34.004597
1613.9012,0.19498771,2677.2217,2155.1965,541.2951,33.628704,1644.4149,522.0253,33.656067
1624.9479,0.19600973,2699.2175,2170.1445,545.1966,33.282295,1659.103,529.0729,33.30904
1635.9917,0.19702522,2721.2766,2185.1165,549.1247,32.937435,1673.8029,536.1601,32.96357
1647.0725,0.19803411,2743.4045,2200.1172,553.04456,32.59417,1688.5756,543.28766,32.61971
1658.1924,0.19903651,2765.5957,2215.1414,556.94885,32.252544,1703.4401,550.4545,32.277504
1669.3159,0.20003231,2787.838,2230.1804,560.8644,31.912445,1718.3383,557.65765,31.936838
1680.4637,0.20102149,2810.1357,2245.238,564.77435,31.573984,1733.2958,564.8977,31.597824
1691.6533,0.20200405,2832.5068,2260.3289,568.6755,31.237373,1748.3312,572.1778,31.260668
1702.8019,0.20297997,2854.9304,2275.4365,572.63477,30.902388,1763.3412,579.49365,30.925154
1713.9719,0.20394926,2877.413,2290.5667,576.5948,30.569174,1778.4055,586.84625,30.591421
1725.1841,0.20491192,2899.9543,2305.719,580.53503,30.237776,1793.5463,594.2352,30.25952
1736.373,0.20586784,2922.5505,2320.8914,584.51825,29.908125,1808.7003,601.6591,29.92937
1747.6031,0.20681708,2945.245,2336.118,588.51495,29.580698,1823.949,609.127,29.601463
1758.839,0.20775962,2968.0144,2351.381,592.5421,29.255325,1839.2585,616.63354,29.275616
1770.1036,0.2086954,2990.828,2366.6558,596.5521,28.93173,1854.6237,624.172,28.951561
1781.3578,0.20962451,3013.6846,2381.9426,600.5848,28.609943,1870.0034,631.7422,28.629322
1792.6162,0.21054691,3036.6062,2397.2583,604.6421,28.29015,1885.4231,639.3481,28.309088
1803.9199,0.21146257,3059.592,2412.6028,608.68286,27.97247,1900.9288,646.98914,27.990978
1815.2554,0.21237156,3082.626,2427.964,612.70856,27.656668,1916.5013,654.66205,27.674757
1826.6337,0.21327375,3105.7134,2443.346,616.71234,27.342833,1932.16,662.36707,27.360508
1838.0582,0.21416923,3128.8472,2458.7444,620.68616,27.030981,1947.9346,670.1028,27.048256
1849.4211,0.21505795,3152.0234,2474.1555,624.73444,26.721048,1963.6486,677.86774,26.737932
1860.8191,0.21593997,3175.2676,2489.6003,628.7813,26.413326,1979.4362,685.6672,26.429825
1872.2367,0.21681523,3198.5745,2505.075,632.83813,26.107742,1995.276,693.4997,26.123865
1883.6732,0.21768378,3221.937,2520.5735,636.90027,25.804302,2011.1664,701.3634,25.820057
1895.094,0.21854559,3245.3457,2536.0898,640.9957,25.502943,2027.065,709.256,25.518341
1906.5577,0.21940067,3268.8127,2551.633,645.0754,25.203745,2043.0502,717.17975,25.218794
