con,Omega,ygross,ynet,inv,Eind,scc,Dam,Emissions
77.0683,0.0028556,105.17594,104.8756,27.807312,36.845238,25.337843,0.3003404,39.445236
79.5506,0.0031533004,108.63874,108.29617,28.745579,37.4839,26.006409,0.3425706,40.024784
82.11894,0.003426751,112.202866,111.81837,29.699432,38.128773,26.712627,0.38449124,40.61188
84.77463,0.0036809198,115.86682,115.44032,30.66569,38.778385,27.456518,0.42649645,41.205032
87.507126,0.0039202017,119.62697,119.158005,31.650877,39.430756,28.231464,0.46896183,41.80223
90.31863,0.004148321,123.48143,122.9692,32.65057,40.084457,29.044996,0.51224065,42.402016
93.202644,0.0043683625,127.42822,126.87156,33.668915,40.738216,29.891169,0.5566526,43.003075
96.16267,0.0045828363,131.4652,130.86272,34.700054,41.390724,30.769953,0.60248345,43.60408
99.19347,0.0047937636,135.59042,134.94043,35.746964,42.04069,31.68142,0.6499884,44.203728
102.29251,0.0050027636,139.80225,139.10284,36.81034,42.68709,32.62391,0.6993975,44.80094
105.459274,0.005211121,144.0996,143.34868,37.8894,43.329258,33.59833,0.7509204,45.395046
108.68823,0.005419858,148.48163,147.67688,38.988647,43.966248,34.598305,0.8047493,45.98506
111.98205,0.005629782,152.94716,152.08609,40.10404,44.597443,35.62483,0.8610591,46.570362
115.3411,0.00584153,157.49559,156.57558,41.234474,45.2223,36.680454,0.9200153,47.150356
118.76587,0.0060556065,162.12602,161.14427,42.37839,45.840168,37.76519,0.9817714,47.72439
122.254745,0.006272406,166.83714,165.79065,43.535915,46.450203,38.876373,1.0464703,48.291573
125.80135,0.0064922385,171.62901,170.51476,44.7134,47.052376,40.01177,1.1142564,48.851883
129.41092,0.006715345,176.50008,175.3148,45.903885,47.645702,41.17285,1.1852589,49.40429
133.07915,0.0069419146,181.45053,180.1909,47.111767,48.23026,42.359135,1.259614,49.94886
136.7985,0.0071720905,186.48065,185.14319,48.3447,48.805614,43.56749,1.3374561,50.485146
140.57642,0.007405978,191.5911,190.17216,49.59574,49.371883,44.802696,1.4189194,51.013226
144.41443,0.007643661,196.78142,195.2773,50.86287,49.928726,46.06208,1.5041304,51.532745
148.3102,0.007885196,202.0514,200.45818,52.148003,50.475807,47.343807,1.593215,52.043354
152.26186,0.008130621,207.40053,205.71422,53.452374,51.012886,48.646587,1.6862952,52.54479
156.27405,0.008379961,212.82817,211.04466,54.770615,51.539474,49.977856,1.7834917,53.036545
160.34508,0.008633227,218.33554,216.45059,56.10551,52.055973,51.33305,1.8849404,53.519005
164.4751,0.00889042,223.92319,221.93243,57.45735,52.56209,52.70973,1.9907713,53.99186
168.66158,0.00915153,229.59149,227.49037,58.828804,53.05805,54.110798,2.1011133,54.455303
172.90538,0.009416544,235.33704,233.12097,60.21559,53.542637,55.536617,2.2160616,54.908127
177.21353,0.009685438,241.16295,238.82716,61.613632,54.016674,56.98971,2.3357687,55.351116
181.57126,0.009958182,247.06874,244.60837,63.03711,54.479824,58.466583,2.4603558,55.783924
185.98926,0.010234746,253.05522,250.46527,64.47602,54.93227,59.97222,2.589956,56.206715
190.46301,0.010515094,259.12082,256.39615,65.93313,55.373474,61.500465,2.7246797,56.618942
194.99185,0.010799185,265.26843,262.40375,67.41191,55.80399,63.056683,2.8646832,57.02114
199.58212,0.011086974,271.49768,268.48758,68.90547,56.223736,64.637825,3.0100882,57.413216
204.22511,0.011378417,277.8081,274.6471,70.42197,56.63244,66.24161,3.1610162,57.794865
208.9218,0.011673468,284.1983,280.88074,71.95892,57.029755,67.86963,3.31758,58.165752
213.68105,0.011972075,290.67142,287.1915,73.51045,57.41638,69.530594,3.4799402,58.526554
218.50148,0.01227419,297.22693,293.57867,75.0772,57.792027,71.21653,3.6482198,58.87695
223.37584,0.012579757,303.86526,300.04272,76.66689,58.15674,72.928604,3.8225513,59.216995
228.30275,0.012888721,310.58774,306.58466,78.28191,58.510727,74.66276,4.003079,59.54688
233.29008,0.013201028,317.39465,313.2047,79.914635,58.854084,76.42159,4.189935,59.866673
238.3362,0.013516621,324.28644,319.9032,81.56701,59.186768,78.20437,4.383257,60.17633
243.43854,0.013835444,331.26083,326.6777,83.23914,59.5084,80.01246,4.5831404,60.47546
248.60083,0.0141574405,338.31744,333.5277,84.92688,59.818726,81.8498,4.7897086,60.763805
253.81587,0.0144825475,345.46155,340.4584,86.642525,60.118874,83.710365,5.0031633,61.04246
259.09332,0.0148107065,352.6913,347.4677,88.3744,60.40837,85.596306,5.2236075,61.310955
264.43954,0.015141862,360.0081,354.5569,90.117355,60.68742,87.513626,5.451193,61.56948
269.83365,0.015475952,367.41464,361.72858,91.89492,60.956596,89.46207,5.6860914,61.818607
275.28995,0.015812913,374.90726,368.97888,93.68894,61.215027,91.43703,5.9283757,62.057434
280.8043,0.01615269,382.4866,376.30838,95.504135,61.463043,93.43789,6.178187,62.286297
286.3817,0.016495222,390.1524,383.7167,97.33501,61.700504,95.46629,6.4356503,62.505035
292.0227,0.01684045,397.9066,391.20566,99.18297,61.92782,97.52258,6.7009263,62.714066
297.72333,0.017188307,405.74863,398.77448,101.05114,62.1447,99.60218,6.9741316,62.913067
303.47443,0.017538743,413.67773,406.42236,102.947945,62.351276,101.70469,7.255388,63.102177
309.28403,0.017891686,421.69397,414.14914,104.86511,62.547325,103.83019,7.5448165,63.281143
315.1637,0.018247074,429.79877,421.95624,106.79251,62.733356,105.983025,7.84257,63.450493
321.09827,0.018604852,437.99237,429.84357,108.745316,62.90928,108.16632,8.148784,63.610107
327.09073,0.018964954,446.2743,437.81073,110.72002,63.07508,110.37766,8.463572,63.75997
333.1443,0.019327328,454.6454,445.85828,112.714,63.23101,112.61429,8.78708,63.900337
339.26025,0.019691901,463.10675,453.9873,114.72706,63.37706,114.87927,9.119452,64.031166
345.437,0.02005862,471.6576,462.1968,116.75975,63.513233,117.17111,9.460801,64.152466
351.66336,0.02042742,480.29886,470.48758,118.824234,63.63985,119.49028,9.811266,64.26455
357.95392,0.020798242,489.03137,478.86032,120.906425,63.75693,121.838974,10.170992,64.367424
364.30673,0.021171026,497.854,487.3139,123.00719,63.864265,124.21515,10.54008,64.46087
370.7241,0.021545716,506.769,495.85034,125.12622,63.96243,126.622055,10.918702,64.54548
377.19727,0.02192225,515.7764,504.46948,127.27222,64.051346,129.05162,11.30698,64.62113
383.7367,0.022300564,524.8762,513.1712,129.43454,64.131065,131.51044,11.705036,64.6879
390.3402,0.022680609,534.06757,521.9546,131.6144,64.20153,134.00081,12.112977,64.74571
397.0076,0.02306232,543.3505,530.8196,133.81198,64.26283,136.52493,12.530924,64.79464
403.734,0.023445647,552.72327,539.7643,136.03026,64.31481,139.07716,12.958955,64.834526
410.51962,0.023830524,562.1867,548.78955,138.26991,64.357666,141.658,13.397204,64.865555
417.34937,0.0242169,571.7414,557.8956,140.54623,64.39152,144.25964,13.845805,64.88786
424.24277,0.024604721,581.3939,567.08887,142.8461,64.41719,146.89409,14.305035,64.902245
431.1976,0.024993924,591.1393,576.3644,145.16678,64.43405,149.55623,14.774891,64.90807
438.22864,0.025384462,600.98114,585.7256,147.49693,64.44283,152.2538,15.255583,64.90608
445.32352,0.025776276,610.9145,595.1674,149.84395,64.44292,154.97972,15.747101,64.89563
452.47626,0.026169308,620.93787,604.68835,152.2121,64.43425,157.73428,16.249516,64.87667
459.689,0.026563508,631.0553,614.29224,154.60323,64.417366,160.51634,16.763042,64.84973
466.96158,0.026958825,641.27,623.9821,157.02054,64.39261,163.3337,17.287886,64.81515
474.2929,0.027355205,651.5767,633.75275,159.45984,64.3595,166.17894,17.824017,64.77242
481.68973,0.027752599,661.9756,643.60406,161.91432,64.31831,169.05423,18.371544,64.72184
489.13297,0.028150955,672.47034,653.5396,164.40665,64.26928,171.94263,18.930681,64.663635
496.6419,0.028550226,683.0604,663.5589,166.91702,64.21268,174.86273,19.501532,64.59807
504.21805,0.028950347,693.7463,673.6622,169.44408,64.148415,177.81622,20.084196,64.52505
511.85245,0.02935128,704.52826,683.8494,171.997,64.07669,180.79854,20.678806,64.444756
519.5472,0.029752972,715.4063,694.12085,174.57375,63.9976,183.81093,21.285465,64.3573
527.3168,0.030141782,726.3801,704.4858,177.16899,63.91124,186.85902,21.894392,64.26275
535.141,0.030520756,737.4497,714.9422,179.80125,63.817646,189.93153,22.507524,64.16117
543.03534,0.0308922,748.61444,725.48804,182.4527,63.716797,193.03992,23.126345,64.05251
550.99774,0.031257845,759.87616,736.124,185.12633,63.60915,196.18652,23.752092,63.93723
559.03467,0.031619005,771.2382,746.8525,187.81773,63.49483,199.37029,24.385786,63.81545
567.1451,0.031976648,782.6982,757.67004,190.52498,63.373856,202.59042,25.028063,63.68719
575.31287,0.032331504,794.2549,768.57544,193.26256,63.246254,205.83995,25.679457,63.55246
583.5427,0.032684132,805.9083,779.56793,196.02518,63.11207,209.11919,26.340414,63.411312
591.83813,0.03303493,817.6569,790.64575,198.80759,62.971172,212.43504,27.01124,63.263622
600.2035,0.03338418,829.5031,801.8107,201.60727,62.824123,215.78665,27.692282,63.109917
608.63617,0.033732112,841.4465,813.06274,204.42651,62.670734,219.17305,28.38377,62.950024
617.1272,0.03407889,853.486,824.40015,207.27301,62.51102,222.59554,29.085857,62.783962
625.6702,0.034424596,865.6207,835.822,210.15181,62.34526,226.05571,29.798643,62.61199
634.278,0.034769323,877.8531,847.3307,213.05269,62.173515,229.54956,30.522356,62.434185
642.9548,0.03511311,890.1827,858.9256,215.9708,61.99608,233.07988,31.257084,62.250824
651.6993,0.035455987,902.60974,870.60675,218.90747,61.812725,236.64679,32.00292,62.06168
660.5002,0.03579796,915.1338,882.37384,221.87369,61.62389,240.25223,32.759926,61.86718
669.3618,0.036139045,927.75806,894.22974,224.86794,61.429615,243.8917,33.52829,61.667374
678.29504,0.036479227,940.48334,906.17523,227.88013,61.230206,247.57506,34.308105,61.462555
687.2872,0.03681849,953.30725,918.208,230.92078,61.025597,251.29045,35.099335,61.252674
696.346,0.037156828,966.2284,930.3265,233.9804,60.815674,255.03955,35.901985,61.037575
705.45654,0.03749422,979.24774,942.5315,237.07501,60.600716,258.81863,36.71613,60.81757
714.6271,0.03783064,992.3641,954.82227,240.1952,60.380672,262.63132,37.541767,60.592598
723.8677,0.038166072,1005.5773,967.1983,243.33066,60.155827,266.48322,38.378937,60.36294
733.16724,0.038500495,1018.8876,979.66,246.49272,59.925987,270.37296,39.227676,60.128395
742.5356,0.038833868,1032.3016,992.21344,249.6778,59.69197,274.30466,40.088264,59.88977
751.97,0.03916619,1045.8179,1004.85724,252.88722,59.45356,278.2833,40.960705,59.646854
761.4544,0.039497424,1059.426,1017.58154,256.1271,59.210384,282.29205,41.844597,59.399292
771.0033,0.039827537,1073.1335,1030.3933,259.39,58.962975,286.3386,42.74027,59.147587
780.6229,0.040156517,1086.9454,1043.2975,262.67453,58.711582,290.42102,43.647945,58.89199
790.31854,0.04048433,1100.8558,1056.2886,265.96994,58.456005,294.54694,44.567413,58.632313
800.10333,0.040810958,1114.867,1069.3682,269.26483,58.19655,298.72763,45.498787,58.36885
809.889,0.041136373,1128.9824,1082.54,272.65112,57.93349,302.9141,46.442238,58.10187
819.7751,0.041460574,1143.1923,1095.7949,276.0198,57.666336,307.1657,47.397404,57.8309
829.7341,0.04178351,1157.4991,1109.1346,279.40063,57.395412,311.45853,48.364376,57.55623
839.75354,0.04210518,1171.9008,1122.5577,282.8041,57.12074,315.79968,49.34309,57.2779
849.8427,0.042425547,1186.4,1136.0663,286.22357,56.84242,320.18198,50.333668,56.996006
859.9871,0.042744596,1200.9946,1149.6586,289.67148,56.560486,324.60217,51.336033,56.710575
870.19855,0.043062307,1215.6832,1163.3331,293.13452,56.275066,329.0649,52.35013,56.42174
880.4701,0.04337866,1230.4606,1177.085,296.61475,55.986042,333.5624,53.37573,56.12939
890.80707,0.04369362,1245.3271,1190.9144,300.10736,55.69345,338.09644,54.412857,55.833538
901.1794,0.044007186,1260.2888,1204.827,303.64767,55.397663,342.65616,55.46176,55.53456
911.621,0.044319324,1275.3481,1218.8256,307.2046,55.099,347.25854,56.52257,55.232788
922.132,0.044630032,1290.5039,1232.9086,310.7766,54.79751,351.90335,57.59523,54.928253
932.70544,0.044939272,1305.7552,1247.0754,314.3701,54.49305,356.58566,58.67969,54.620823
943.3108,0.04524704,1321.0986,1261.3229,318.01212,54.185894,361.28793,59.775803,54.31076
953.9793,0.04555331,1336.5363,1275.6526,321.67325,53.87601,366.02954,60.883656,53.998035
964.7154,0.04585807,1352.0679,1290.0647,325.34918,53.563515,370.8126,62.00322,53.682766
975.51715,0.046161294,1367.6929,1304.5583,329.0412,53.24847,375.6363,63.134476,53.36501
986.34283,0.046462968,1383.4092,1319.132,332.78918,52.931095,380.49008,64.27729,53.044983
997.23126,0.046763096,1399.228,1333.7958,336.56442,52.61161,385.3894,65.432236,52.722916
1008.1907,0.04706165,1415.143,1348.5441,340.35336,52.290092,390.33365,66.59896,52.39886
1019.21954,0.047358613,1431.1539,1363.3765,344.15683,51.966496,395.32178,67.777466,52.072796
1030.2927,0.047653966,1447.2577,1378.2902,347.99747,51.640827,400.3471,68.96757,51.744705
1041.4235,0.0479477,1463.458,1393.2885,351.86505,51.31339,405.41553,70.16944,51.414906
1052.6265,0.048239816,1479.756,1408.3727,355.74628,50.98421,410.53082,71.38315,51.083424
1063.8999,0.048530288,1496.1488,1423.5403,359.64038,50.65339,415.6917,72.60853,50.750343
1075.2456,0.04881911,1512.635,1438.7894,363.54388,50.320858,420.89914,73.84549,50.415607
1086.6501,0.049106266,1529.2145,1454.1206,367.47046,49.986736,426.14972,75.09402,50.079334
1098.1088,0.04939175,1545.8817,1469.5278,371.41913,49.65099,431.44376,76.3538,49.74148
1109.6356,0.049675554,1562.6371,1485.0122,375.37662,49.313564,436.78238,77.62486,49.401997
1121.2238,0.049957678,1579.4778,1500.5706,379.34677,48.974735,442.16113,78.90704,49.06116
1132.8757,0.050238084,1596.4061,1516.2057,383.32996,48.634407,447.58167,80.20038,48.718864
1144.594,0.050516784,1613.419,1531.9142,387.32028,48.292664,453.0624,81.50474,48.3752
1156.3606,0.05079376,1630.5125,1547.6926,391.33218,47.949593,458.58942,82.819855,48.030254
1168.161,0.051069003,1647.6934,1563.5472,395.38617,47.60547,464.14438,84.14606,47.684296
1180.0055,0.051342506,1664.9622,1579.4788,399.4734,47.260223,469.7376,85.48332,47.337257
1191.8883,0.05161425,1682.3169,1595.4852,403.59705,46.91398,475.3721,86.83153,46.98926
1203.8368,0.05188424,1699.7651,1611.5742,407.7373,46.567204,481.05222,88.19102,46.640774
1215.845,0.052152455,1717.3094,1627.7476,411.9026,46.219788,486.77176,89.56191,46.291683
1227.9175,0.0524189,1734.9471,1644.0032,416.08566,45.871815,492.53717,90.94403,45.942078
1240.044,0.05268356,1752.6702,1660.3334,420.28952,45.523224,498.34106,92.33691,45.59189
1252.212,0.052946437,1770.4792,1676.7386,424.52664,45.173958,504.17676,93.74056,45.241066
1264.4581,0.053207524,1788.3807,1693.2255,428.7673,44.82443,510.0706,95.15531,44.890007
1276.7786,0.05346682,1806.3695,1709.7887,433.01013,44.47448,516.0249,96.58083,44.53857
1289.1245,0.05372431,1824.4396,1726.4229,437.2983,44.12414,522.0031,98.016754,44.186775
1301.5355,0.053979997,1842.5963,1743.133,441.59747,43.77345,528.0272,99.46335,43.834656
1313.9886,0.05423387,1860.8356,1759.9154,445.9267,43.422554,534.0894,100.92033,43.48237
1326.5062,0.054485943,1879.1617,1776.774,450.26776,43.07145,540.19836,102.38791,43.129906
1339.0647,0.05473619,1897.572,1793.7062,454.64142,42.72034,546.352,103.86586,42.777466
1351.6896,0.05498462,1916.0696,1810.7151,459.02548,42.36924,552.55255,105.35435,42.425068
1364.3734,0.05523122,1934.6501,1827.797,463.42352,42.018173,558.7952,106.85309,42.072727
1377.0946,0.05547599,1953.3116,1844.9497,467.85516,41.66713,565.0704,108.3619,41.720448
1389.8615,0.05571894,1972.0502,1862.1696,472.30814,41.316124,571.3908,109.88054,41.36823
1402.6493,0.05596007,1990.8678,1879.4587,476.80945,40.965244,577.75183,111.409096,41.016163
1415.5089,0.05619935,2009.7754,1896.8274,481.31845,40.614815,584.1668,112.948074,40.664577
1428.4231,0.056436814,2028.7705,1914.2731,485.85004,40.26481,590.62494,114.49734,40.31344
1441.4022,0.05667244,2047.8442,1931.788,490.3858,39.915134,597.1185,116.056335,39.96266
1454.439,0.05690622,2066.986,1949.3618,494.92282,39.56573,603.658,117.62437,39.612175
1467.522,0.05713816,2086.2065,1967.0046,499.4827,39.216713,610.2439,119.202,39.2621
1480.6497,0.05736826,2105.5105,1984.721,504.0713,38.868374,616.87256,120.78947,38.91273
1493.8363,0.05759654,2124.8943,2002.5076,508.6714,38.520584,623.5466,122.38655,38.56393
1507.0734,0.05782297,2144.3618,2020.3685,513.2952,38.173515,630.2809,123.99338,38.215874
1520.3624,0.058047567,2163.9033,2038.2941,517.9317,37.827145,637.0624,125.60933,37.86854
1533.7067,0.05827032,2183.5176,2056.2832,522.57654,37.48135,643.8866,127.23426,37.521812
1547.0886,0.058491245,2203.2031,2074.3352,527.24664,37.13633,650.743,128.86809,37.175865
1560.5195,0.058710337,2222.9602,2092.4495,531.93,36.791985,657.6384,130.51074,36.830624
1574.0044,0.058927596,2242.7883,2110.6262,536.6218,36.448452,664.57623,132.16212,36.486214
1587.504,0.059143025,2262.6863,2128.8643,541.36017,36.105766,671.5372,133.82211,36.142666
1601.0548,0.05935663,2282.664,2147.173,546.11816,35.764126,678.54315,135.49126,35.800186
1614.6719,0.059568398,2302.7217,2165.5522,550.88055,35.423603,685.60156,137.16945,35.458843
1628.3483,0.059778336,2322.8547,2183.9983,555.6501,35.084152,692.7073,138.8564,35.118595
1642.0637,0.05998644,2343.0627,2202.511,560.4471,34.745785,699.8534,140.55199,34.77944
1655.8317,0.060192734,2363.3386,2221.0828,565.251,34.408524,707.0421,142.2558,34.44142
1669.6482,0.060397215,2383.6812,2239.7134,570.0652,34.07232,714.27094,143.9677,34.104465
1683.4983,0.06059988,2404.0889,2258.4014,574.9032,33.7373,721.533,145.68748,33.768715
1697.3899,0.060800727,2424.565,2277.1494,579.7597,33.403446,728.849,147.41531,33.434147
1711.2722,0.060999762,2445.113,2295.9617,584.68945,33.070904,736.17737,149.1513,33.100906
1725.2198,0.061197013,2465.744,2314.8474,589.6276,32.73987,743.5577,150.89616,32.769188
1739.2305,0.061392445,2486.45,2333.8005,594.5701,32.41027,750.991,152.64923,32.438923
1753.2897,0.061586108,2507.229,2352.8186,599.52893,32.082066,758.48083,154.41048,32.11006
1767.3999,0.061777964,2528.0718,2371.8926,604.4927,31.755222,766.0134,156.17912,31.78259
1781.5518,0.06196803,2548.976,2391.0212,609.4694,31.429768,773.58575,157.95503,31.456509
1795.6946,0.06215632,2569.945,2410.2068,614.51227,31.10577,781.1846,159.73833,31.131905
1809.8969,0.062342837,2590.9897,2429.4602,619.56323,30.783342,788.83417,161.52965,30.808882
1824.1608,0.06252759,2612.1052,2448.7764,624.6156,30.462526,796.5353,163.32864,30.487486
1838.4813,0.06271056,2633.287,2468.152,629.6708,30.143303,804.2842,165.1349,30.167692
1852.8572,0.06289179,2654.5347,2487.5864,634.7292,29.825693,812.07916,166.94844,29.84953
1867.2815,0.06307126,2675.841,2507.0725,639.79114,29.50964,819.9164,168.76866,29.532938
1881.7535,0.06324899,2697.2063,2526.6106,644.857,29.19515,827.7951,170.59558,29.217915
1896.2715,0.06342498,2718.6272,2546.1985,649.9268,28.88226,835.71375,172.4289,28.904507
1910.8473,0.06359924,2740.105,2565.8367,654.9892,28.571028,843.69617,174.26859,28.592768
1925.4724,0.063771755,2761.6401,2585.5256,660.05334,28.261438,851.7227,176.11464,28.282686
1940.0184,0.06394256,2783.229,2605.262,665.24365,27.95348,859.72363,177.96678,27.974243
1954.6167,0.064111635,2804.8857,2625.06,670.4432,27.647383,867.7745,179.82582,27.667677
1969.2474,0.06427901,2826.6,2644.909,675.6617,27.343075,875.86664,181.69106,27.362907
1983.9155,0.06444468,2848.3772,2664.8147,680.8992,27.040627,884.0025,183.56277,27.060005
1998.6415,0.06460866,2870.2183,2684.7769,686.13544,26.740013,892.18835,185.44095,26.758953
2013.4193,0.06477096,2892.1167,2704.7915,691.3721,26.441317,900.42017,187.32515,26.459826
2028.2435,0.064931564,2914.0708,2724.8555,696.612,26.144424,908.6915,189.21518,26.162514
2043.1163,0.06509051,2936.0845,2744.9734,701.857,25.849415,917.0039,191.11124,25.867094
2058.038,0.065247774,2958.1653,2765.1516,707.1135,25.556414,925.3763,193.0137,25.573689
2072.997,0.06540338,2980.299,2785.3774,712.3806,25.265268,933.7942,194.92165,25.28215
2087.992,0.06555733,3002.4783,2805.6438,717.6518,24.975985,942.2465,196.83446,24.992481
2103.0432,0.06570964,3024.703,2825.951,722.9078,24.688549,950.7489,198.75217,24.704672
2118.104,0.06586032,3046.964,2846.29,728.18616,24.402952,959.27106,200.67404,24.418709
2133.1465,0.06600938,3069.2878,2866.686,733.5397,24.119423,967.82935,202.60179,24.13482
2148.233,0.06615681,3091.6624,2887.1277,738.8951,23.83785,976.4326,204.53453,23.852898
