con,Omega,ygross,ynet,inv,Eind,scc,Dam,Emissions
77.63637,0.0028556,105.17594,104.8756,27.239239,36.845238,22.135601,0.3003404,39.445236
79.79715,0.0031533004,108.57086,108.2285,28.431343,37.46048,22.689255,0.34235653,40.001358
82.14659,0.003426751,112.10944,111.72528,29.578688,38.097027,23.277603,0.38417113,40.580135
84.66648,0.0036808904,115.77451,115.348366,30.681879,38.747494,23.897926,0.42615327,41.17414
87.289444,0.0039201076,119.55574,119.08707,31.797625,39.407284,24.535439,0.46867138,41.778755
90.049576,0.004148139,123.44511,122.933044,32.883465,40.07267,25.204454,0.51206744,42.39022
92.939514,0.004368085,127.43456,126.877914,33.938408,40.74025,25.902382,0.55664504,43.005108
95.91169,0.0045824717,131.51869,130.91602,35.004326,41.407562,26.621445,0.6026807,43.620922
98.96565,0.0047933403,135.68971,135.0393,36.07365,42.07148,27.363733,0.65040696,44.234512
102.0987,0.005002322,139.9443,139.24428,37.145573,42.73047,28.127014,0.70004654,44.84432
105.31183,0.0052107135,144.281,143.52922,38.21738,43.38381,28.906548,0.7518071,45.449596
108.585365,0.0054195393,148.69759,147.89171,39.30634,44.03019,29.70444,0.8058724,46.049004
111.921875,0.005629609,153.19284,152.33043,40.40856,44.669083,30.517542,0.8624158,46.642002
115.32765,0.0058415593,157.76573,156.84413,41.516476,45.29986,31.344769,0.9215979,47.227913
118.79937,0.006055888,162.41537,161.43181,42.632435,45.921978,32.185604,0.9835693,47.8062
122.33215,0.006272985,167.14134,166.09286,43.76071,46.5349,33.042194,1.0484753,48.376274
125.91793,0.0064931554,171.94096,170.82451,44.90659,47.13789,33.906578,1.1164395,48.937397
129.56241,0.0067166314,176.81453,175.62694,46.064526,47.730587,34.782204,1.1875981,49.489174
133.25716,0.0069435933,181.76248,180.5004,47.243244,48.31318,35.667595,1.2620847,50.031784
137.02542,0.0071741757,186.7841,185.44408,48.418655,48.885036,36.568645,1.3400218,50.564564
140.84213,0.0074084788,191.87976,190.4582,49.61608,49.44627,37.484287,1.421537,51.08761
144.7055,0.007646574,197.04906,195.5423,50.836784,49.996635,38.409138,1.5067501,51.600655
148.6357,0.007888511,202.29076,200.69498,52.059288,50.5356,39.34653,1.5957727,52.103146
152.61964,0.008134321,207.60574,205.917,53.29739,51.063366,40.297195,1.6887318,52.59527
156.65668,0.00838402,212.9952,211.20943,54.552753,51.57992,41.259644,1.785756,53.076992
160.75813,0.008637609,218.45987,216.57292,55.814785,52.085617,42.23699,1.8869709,53.54865
164.91736,0.0088950815,223.9977,222.0052,57.08784,52.579582,43.224358,1.9924777,54.009346
169.12154,0.009156424,229.60855,227.50615,58.38462,53.061996,44.222027,2.1023932,54.45925
173.39038,0.009421613,235.2921,233.07526,59.684887,53.532413,45.23461,2.216831,54.897903
177.71387,0.00969062,241.05104,238.71509,61.001232,53.991608,46.257843,2.335934,55.32605
182.08734,0.00996341,246.88434,244.42455,62.337193,54.439167,47.290543,2.45981,55.743267
186.51175,0.0102399485,252.79166,250.20308,63.691326,54.875053,48.3399,2.5885737,56.149498
190.96606,0.010520192,258.7766,256.05423,65.08814,55.29992,49.40262,2.7223794,56.545383
195.48634,0.010804096,264.83862,261.97726,66.490944,55.713573,50.476566,2.861342,56.930717
200.07356,0.011091614,270.9794,267.97382,67.90024,56.11641,51.56796,3.005599,57.305885
204.7134,0.011382694,277.20016,274.0449,69.33149,56.508503,52.67228,3.1552846,57.67093
209.42218,0.011677292,283.49963,280.18915,70.76697,56.889557,53.790894,3.3105078,58.02556
214.20879,0.011975358,289.87375,286.4024,72.19361,57.258816,54.924576,3.4713418,58.368988
219.02112,0.0122768385,296.32492,292.68698,73.66587,57.616642,56.074146,3.6379335,58.70157
223.86584,0.012581674,302.8543,299.0439,75.17808,57.963253,57.235508,3.8104143,59.02351
228.77515,0.012889815,309.46548,305.47653,76.70138,58.29931,58.409016,3.9889529,59.335457
233.75221,0.0132012,316.15875,311.98508,78.23287,58.62491,59.597664,4.173675,59.637505
238.79997,0.013515776,322.93198,318.56732,79.76733,58.939545,60.80086,4.364676,59.929115
243.8931,0.013833483,329.78427,325.22223,81.32912,59.243153,62.01402,4.562065,60.21022
249.04076,0.014154263,336.7175,331.9515,82.91076,59.535843,63.24033,4.7659883,60.480923
254.2476,0.014478056,343.73267,338.7561,84.5085,59.818,64.48105,4.9765806,60.74159
259.5415,0.014804804,350.82983,345.63586,86.09437,60.08953,65.740814,5.1939673,60.99212
264.88287,0.015134446,358.00598,352.58777,87.704895,60.349922,67.01597,5.4182224,61.23199
270.27206,0.015466928,365.26547,359.61594,89.34388,60.600037,68.3025,5.649534,61.462044
275.7247,0.01580218,372.6079,366.71988,90.99521,60.83959,69.60319,5.888017,61.681988
281.22507,0.016140144,380.0301,373.89636,92.67127,61.068306,70.91914,6.1337404,61.891556
286.7907,0.016480763,387.53662,381.14975,94.35903,61.28684,72.25412,6.3868985,62.09137
292.39224,0.01682397,395.12982,388.48218,96.08995,61.495663,73.59489,6.647652,62.281902
298.06464,0.017169705,402.8042,395.88818,97.82354,61.693737,74.94467,6.9160295,62.462105
303.8017,0.01751791,410.56424,403.37204,99.570305,61.882,76.30989,7.1922274,62.632893
309.60123,0.017868523,418.4107,410.9343,101.33306,62.060345,77.68903,7.476381,62.794163
315.45865,0.018221484,426.33978,418.57123,103.11257,62.228477,79.08017,7.7685432,62.945618
321.3731,0.018576732,434.35236,426.28354,104.910416,62.38646,80.48305,8.068848,63.087296
327.35098,0.018934207,442.45016,434.07272,106.72173,62.534588,81.89831,8.377443,63.21948
333.36508,0.019293843,450.63474,441.94025,108.57517,62.67322,83.32038,8.694476,63.342552
339.44815,0.019655593,458.90695,449.88687,110.43872,62.802303,84.75547,9.020088,63.456406
345.5955,0.020019382,467.2658,457.91144,112.31598,62.921844,86.20056,9.354373,63.561077
351.80374,0.020385161,475.71048,466.01303,114.20927,63.031895,87.65678,9.697434,63.65659
358.0759,0.02075287,484.24133,474.19196,116.11606,63.13244,89.12548,10.049397,63.742924
364.41937,0.021122448,492.85794,482.4476,118.02824,63.22338,90.6106,10.410367,63.81999
370.8222,0.021493835,501.5617,490.7812,119.95896,63.305176,92.109055,10.780483,63.888226
377.31305,0.021866977,510.35425,499.19434,121.88129,63.377995,93.618034,11.159905,63.94778
383.84705,0.022241818,519.23047,507.68182,123.83481,63.44125,95.13757,11.548631,63.99808
390.43335,0.022618294,528.191,516.2442,125.81082,63.495094,96.66916,11.946778,64.03927
397.08713,0.02299635,537.2353,524.88086,127.79369,63.539566,98.2178,12.35445,64.07137
403.785,0.02337593,546.36414,533.59235,129.80739,63.57488,99.78703,12.77177,64.09458
410.5205,0.023756972,555.5818,542.3829,131.86237,63.601555,101.36675,13.198941,64.109436
417.31396,0.024139423,564.8901,551.25397,133.93997,63.619896,102.95789,13.636119,64.116234
424.2024,0.024523227,574.2885,560.20514,136.00275,63.62993,104.56662,14.083407,64.11498
431.15298,0.024908325,583.7761,569.2352,138.08223,63.631474,106.18617,14.540885,64.1055
438.1693,0.025294663,593.35144,578.3429,140.17355,63.6247,107.82002,15.008626,64.08795
445.2086,0.025682198,603.0123,587.52563,142.31705,63.609344,109.46173,15.486681,64.06206
452.3063,0.026070869,612.7668,596.7914,144.48506,63.586346,111.11742,15.975362,64.02876
459.46356,0.026460623,622.61456,606.1398,146.6762,63.555733,112.78711,16.474768,63.9881
466.69308,0.026851412,632.55304,615.5681,148.87503,63.51732,114.47084,16.984943,63.93985
473.98065,0.027243182,642.58295,625.0769,151.09625,63.471134,116.17,17.506002,63.88406
481.33282,0.027635887,652.70734,634.6692,153.33636,63.41778,117.88591,18.038145,63.821316
488.75778,0.028029473,662.9228,644.3414,155.58362,63.356808,119.614136,18.581377,63.751163
496.25955,0.028423898,673.22723,654.0915,157.83192,63.288292,121.35583,19.135742,63.67368
503.8297,0.028819116,683.61804,663.91675,160.08702,63.21188,123.11125,19.70127,63.588505
511.43146,0.029215079,694.0963,673.81824,162.38678,63.1279,124.86997,20.278078,63.49597
519.10114,0.02961173,704.67004,683.8035,164.70242,63.03718,126.64766,20.866499,63.396873
526.8547,0.029995466,715.33307,693.87634,167.0216,62.939247,128.436,21.456747,63.29076
534.6991,0.030369332,726.0832,704.0325,169.33337,62.834003,130.23985,22.05066,63.177532
542.58624,0.030735621,736.92194,714.27216,171.68593,62.72161,132.05739,22.649752,63.057327
550.508,0.031096073,747.8469,724.5918,174.08374,62.602173,133.88968,23.2551,62.930256
558.4973,0.03145199,758.86426,734.99646,176.49911,62.4761,135.73715,23.867786,62.796722
566.5267,0.031804334,769.97424,745.4858,178.95912,62.343624,137.60013,24.488518,62.65696
574.6244,0.032153852,781.1759,756.05804,181.43365,62.204765,139.48392,25.117815,62.510975
582.7999,0.032501083,792.4774,766.72107,183.92108,62.06027,141.38562,25.756374,62.359512
591.0551,0.032846425,803.87555,777.4711,186.416,61.909805,143.30452,26.404436,62.202255
599.3727,0.033190187,815.3666,788.30444,188.93178,61.753464,145.23299,27.06217,62.039257
607.76587,0.033532575,826.94904,799.21936,191.45348,61.59096,147.17613,27.72973,61.87025
616.2353,0.033873744,838.62305,810.21576,193.98045,61.42243,149.13394,28.407303,61.695366
624.756,0.034213822,850.38837,821.2933,196.53732,61.248165,151.10414,29.095036,61.5149
633.33936,0.03455287,862.2446,832.45154,199.11217,61.068054,153.08847,29.793026,61.328728
642.0098,0.034890927,874.1909,843.6896,201.67969,60.88235,155.10124,30.501331,61.13709
650.699,0.035228044,886.2229,855.00305,204.3041,60.690525,157.11327,31.2199,60.93948
659.4358,0.035564218,898.34564,866.3967,206.9609,60.493397,159.1352,31.94896,60.736687
668.26886,0.03589946,910.5664,877.8775,209.60869,60.291306,161.1804,32.688843,60.529064
677.1669,0.03623376,922.8832,889.44366,212.2768,60.08435,163.24374,33.43953,60.3167
686.1358,0.03656711,935.2917,901.09076,214.955,59.872337,165.32236,34.200916,60.099407
695.16724,0.0368995,947.79083,912.8178,217.65059,59.65518,167.41608,34.973007,59.877083
704.2153,0.037230905,960.38055,924.6247,220.40944,59.43312,169.5273,35.755833,59.64998
713.33777,0.0375613,973.068,936.5183,223.18051,59.206596,171.65378,36.5497,59.418518
722.53766,0.03789068,985.85175,948.49725,225.95955,58.9758,173.79968,37.354595,59.182915
731.81305,0.038219012,998.7284,960.5579,228.7449,58.740326,175.96231,38.170414,58.942726
741.1741,0.038546268,1011.6956,972.69855,231.52449,58.500443,178.1398,38.99709,58.69824
750.6059,0.038872436,1024.7521,984.91754,234.31165,58.25599,180.33197,39.83461,58.44929
760.06757,0.039197482,1037.8949,997.21204,237.14442,58.007027,182.54079,40.682865,58.195934
769.5684,0.039521392,1051.1222,1009.58044,240.01201,57.753567,184.7687,41.541813,57.93818
779.1355,0.039844133,1064.441,1022.0293,242.8938,57.496002,187.00024,42.41173,57.67642
788.77466,0.040165685,1077.8469,1034.5544,245.77974,57.234215,189.24486,43.292458,57.410526
798.5068,0.040486027,1091.3367,1047.1528,248.64598,56.96825,191.50798,44.183887,57.140553
808.277,0.040805127,1104.9102,1059.8242,251.54718,56.69823,193.78627,45.086,56.866615
818.1602,0.04112297,1118.5763,1072.5771,254.41681,56.424625,196.08505,45.999172,56.58918
828.0075,0.04143952,1132.3381,1085.4146,257.40707,56.14779,198.3908,46.92355,56.308605
837.8563,0.041754767,1146.2014,1098.342,260.48572,55.8681,200.70564,47.85937,56.02526
847.8254,0.042068683,1160.1597,1111.3533,263.52795,55.58521,203.04218,48.80639,55.738792
857.9173,0.042381253,1174.2075,1124.4431,266.52588,55.29896,205.39775,49.76438,55.44905
868.10565,0.042692456,1188.3503,1137.6167,269.51114,55.009804,207.77182,50.733597,55.156483
878.37445,0.043002278,1202.5864,1150.8726,272.49802,54.717766,210.1681,51.713955,54.86111
888.6936,0.043310698,1216.9098,1164.2045,275.51086,54.422565,212.5839,52.70521,54.562653
899.0469,0.04361768,1231.3131,1177.6061,278.55914,54.123997,215.01227,53.70702,54.2609
909.353,0.043923236,1245.7994,1191.0798,281.72687,53.822403,217.45706,54.71954,53.95619
919.75635,0.044227332,1260.3854,1204.6418,284.88547,53.518616,219.92288,55.743484,53.64936
930.25366,0.044529952,1275.0663,1218.2876,288.034,53.212315,222.40805,56.778645,53.340088
940.84344,0.04483109,1289.8391,1232.0143,291.1709,52.903767,224.91156,57.82489,53.028637
951.518,0.045130707,1304.7023,1245.8201,294.30206,52.592777,227.43289,58.882133,52.7148
962.2506,0.045428816,1319.6536,1259.7032,297.45255,52.279392,229.97618,59.9503,52.398647
973.0434,0.045725387,1334.6854,1273.6564,300.61295,51.963383,232.5362,61.02901,52.07992
983.74976,0.0460204,1349.795,1287.6769,303.9271,51.64497,235.1025,62.118107,51.75886
994.5266,0.046313863,1364.9966,1301.7784,307.25177,51.3245,237.68686,63.218266,51.435806
1005.48004,0.04660574,1380.2911,1315.9617,310.48166,51.002304,240.30014,64.32949,51.111076
1016.5137,0.046896014,1395.6786,1330.2268,313.71304,50.678356,242.93398,65.45177,50.784657
1027.588,0.047184695,1411.1488,1344.5642,316.9761,50.352394,245.58109,66.58462,50.456276
1038.6738,0.04747175,1426.6981,1358.9702,320.29648,50.024467,248.23094,67.72786,50.125988
1049.8088,0.04775717,1442.3284,1373.447,323.6382,49.694668,250.90572,68.88153,49.79388
1061.0103,0.048040956,1458.0374,1387.992,326.98163,49.363094,253.5972,70.04551,49.460052
1072.2698,0.04832309,1473.8248,1402.605,330.33524,49.029762,256.3067,71.21977,49.12451
1083.5245,0.048603557,1489.6964,1417.2919,333.76743,48.69497,259.03705,72.40454,48.787567
1094.853,0.048882343,1505.6571,1432.057,337.20398,48.359047,261.7841,73.600044,48.44954
1106.2842,0.04915944,1521.7094,1446.903,340.61865,48.02197,264.5516,74.80638,48.1104
1117.8086,0.04943484,1537.8472,1461.8239,344.01526,47.6839,267.338,76.023224,47.770325
1129.3611,0.04970853,1554.0707,1476.8202,347.45898,47.34466,270.13528,77.25058,47.42912
1140.9717,0.04998051,1570.3793,1491.8909,350.91925,47.004406,272.947,78.488365,47.086945
1152.6741,0.050250772,1586.773,1507.0363,354.3623,46.66331,275.77734,79.73657,46.743973
1164.4762,0.050519306,1603.2488,1522.2539,357.77762,46.32137,278.62836,80.99502,46.4002
1176.2306,0.05078609,1619.797,1537.5338,361.3033,45.9782,281.49063,82.26315,46.055237
1187.9933,0.051051132,1636.4263,1552.8848,364.89142,45.63425,284.36615,83.54141,45.709534
1199.8691,0.051314425,1653.1411,1568.3113,368.44217,45.289894,287.26105,84.82999,45.36346
1211.8086,0.051575966,1669.9382,1583.8097,372.001,44.944828,290.17545,86.12868,45.016727
1223.7982,0.05183573,1686.8153,1599.378,375.5799,44.59921,293.11008,87.4373,44.66947
1235.8468,0.05209373,1703.7721,1615.0164,379.16956,44.25316,296.06244,88.755844,44.321827
1247.9841,0.05234995,1720.8103,1630.726,382.7419,43.90665,299.0331,90.08433,43.97375
1260.1669,0.0526044,1737.9275,1646.5049,386.33807,43.559856,302.01663,91.42263,43.625427
1272.3401,0.05285706,1755.1218,1662.3512,390.01105,43.21272,305.00952,92.77058,43.27681
1284.5642,0.05310793,1772.402,1678.2733,393.7091,42.865612,308.01926,94.12861,42.92824
1296.8699,0.053356998,1789.7716,1694.2748,397.40482,42.518524,311.054,95.49684,42.57973
1309.2632,0.05360428,1807.2192,1710.3446,401.08142,42.171413,314.10687,96.87469,42.231228
1321.7396,0.053849753,1824.7445,1726.4825,404.7428,41.82418,317.17743,98.26204,41.882637
1334.2925,0.054093435,1842.3436,1742.685,408.39252,41.476974,320.2644,99.6587,41.5341
1346.8175,0.054335304,1860.0168,1758.9524,412.13492,41.12977,323.35767,101.06458,41.185596
1359.376,0.05457537,1877.7638,1775.2839,415.90802,40.782673,326.4633,102.47966,40.83723
1372.0104,0.054813616,1895.5831,1791.6792,419.66873,40.435688,329.58527,103.90376,40.489006
1384.7183,0.055050064,1913.4746,1808.1377,423.41956,40.088913,332.72333,105.3369,40.14102
1397.4977,0.055284683,1931.4368,1824.658,427.16037,39.742355,335.877,106.77888,39.793278
1410.3446,0.0555175,1949.467,1841.2374,430.89273,39.396065,339.0457,108.22953,39.445824
1423.2594,0.055748496,1967.5654,1857.8766,434.61725,39.050083,342.22934,109.68881,39.09871
1436.2272,0.05597767,1985.7306,1874.5741,438.34695,38.704456,345.43222,111.15656,38.751984
1449.1588,0.05620503,2003.9568,1891.3245,442.16568,38.35924,348.64816,112.63247,38.405685
1462.1226,0.05643057,2022.2528,1908.1361,446.01355,38.014507,351.87912,114.11688,38.059895
1475.1299,0.056654297,2040.6204,1925.0105,449.88055,37.670486,355.1252,115.60991,37.714844
1488.1163,0.056876194,2059.0593,1941.9479,453.8315,37.327106,358.38312,117.111465,37.370457
1501.2175,0.05709627,2077.579,1958.9573,457.73972,36.984665,361.6631,118.622025,37.027023
1514.4167,0.05731453,2096.1724,1976.0312,461.6145,36.64314,364.9625,120.14113,36.684536
1527.6761,0.057530973,2114.8364,1993.1677,465.4916,36.3024,368.2794,121.6686,36.342857
1540.9752,0.0577456,2133.5698,2010.3656,469.39044,35.962616,371.61255,123.20427,36.00215
1554.2443,0.057958405,2152.3716,2027.6238,473.37943,35.62368,374.95706,124.74803,35.66232
1567.5798,0.0581694,2171.2522,2044.9515,477.37186,35.28589,378.32114,126.30043,35.323647
1580.9421,0.05837858,2190.212,2062.3503,481.4084,34.949287,381.70233,127.86146,34.98619
1594.3944,0.058585953,2209.2407,2079.81,485.41562,34.61375,385.10187,129.43045,34.64981
1607.9296,0.058791526,2228.3354,2097.3281,489.39856,34.27929,388.51892,131.00723,34.31453
1621.5243,0.058995295,2247.4924,2114.901,493.37668,33.945892,391.95425,132.59148,33.980335
1635.1929,0.05919727,2266.7146,2132.5315,497.3386,33.613598,395.40677,134.18332,33.647255
1648.8962,0.05939745,2285.9978,2150.2153,501.31894,33.2825,398.8716,135.78244,33.315395
1662.6412,0.059595846,2305.3428,2167.9539,505.3126,32.952553,402.34933,137.38885,32.984695
1676.4595,0.05979244,2324.7473,2185.745,509.28558,32.62388,405.843,139.00232,32.655293
1690.2101,0.05998726,2344.21,2203.5872,513.37714,32.296387,409.34225,140.62273,32.32709
1704.0221,0.060180303,2363.7356,2221.4854,517.4632,31.970243,412.85742,142.25032,32.000244
1717.9136,0.060371567,2383.3225,2239.4375,521.524,31.645489,416.3895,143.8849,31.674803
1731.8767,0.060561053,2402.967,2257.4412,525.56433,31.322096,419.93695,145.52623,31.350746
1745.8942,0.060748767,2422.669,2275.4949,529.60065,31.000046,423.49725,147.17416,31.028048
1759.8672,0.060934745,2442.4253,2293.597,533.7297,30.679415,427.05765,148.82857,30.706783
1773.8102,0.06111895,2462.2373,2311.7478,537.9377,30.360243,430.63092,150.48935,30.38699
1787.8348,0.061301406,2482.1204,2329.963,542.1281,30.042767,434.2359,152.15747,30.068901
1801.7252,0.061482113,2502.081,2348.2478,546.5225,29.727024,437.8467,153.83324,29.752563
1815.7318,0.06166107,2522.1133,2366.5972,550.86536,29.41304,441.47586,155.5162,29.437996
1829.871,0.061838306,2542.2188,2385.0122,555.14124,29.100842,445.12933,157.2065,29.125233
1844.122,0.062013805,2562.3928,2403.489,559.367,28.790407,448.8046,158.90372,28.814243
1858.3422,0.062187567,2582.626,2422.019,563.6768,28.48165,452.49976,160.60724,28.504944
1872.6395,0.06235964,2602.93,2440.6123,567.97266,28.17468,456.219,162.31776,28.197449
1887.0258,0.06252999,2623.3018,2459.2668,572.2409,27.869537,459.97018,164.03502,27.891783
1901.4984,0.062698625,2643.7246,2477.9666,576.46826,27.566069,463.74207,165.75789,27.58781
1916.0317,0.062865585,2664.1917,2496.7056,580.67395,27.264193,467.52847,167.48596,27.285442
1930.6069,0.06303086,2684.7007,2515.4817,584.8748,26.963907,471.32654,169.21901,26.98467
1945.1056,0.06319444,2705.2532,2534.2961,589.19037,26.66532,475.1315,170.95695,26.685612
1959.6772,0.06335636,2725.8577,2553.1575,593.48004,26.368546,478.9542,172.70041,26.388378
1974.31,0.06351661,2746.5122,2572.063,597.7529,26.073584,482.79297,174.44914,26.092964
1988.9836,0.0636752,2767.2104,2591.0076,602.0239,25.780355,486.64368,176.20268,25.799294
2003.656,0.06383214,2787.9507,2609.99,606.33386,25.488976,490.5017,177.96088,25.507484
2018.3838,0.063987434,2808.7354,2629.0117,610.62775,25.199377,494.37488,179.72375,25.217466
2033.15,0.06414109,2829.5637,2648.0725,614.92255,24.9116,498.2635,181.4913,24.929277
2047.9719,0.0642931,2850.4412,2667.1772,619.20557,24.625753,502.17557,183.2637,24.643028
2062.824,0.06444348,2871.3572,2686.317,623.4929,24.34172,506.10013,185.04025,24.358603
2077.7156,0.064592265,2892.3098,2705.489,627.7735,24.059555,510.03595,186.82085,24.076052
2092.6475,0.064739436,2913.3,2724.6946,632.04706,23.779242,513.98315,188.60538,23.795366
2107.4521,0.06488499,2934.3254,2743.9316,636.4795,23.500835,517.9303,190.39368,23.51659
2122.2427,0.065028965,2955.408,2763.221,640.97833,23.224522,521.8976,192.18712,23.239922
