con,Omega,ygross,ynet,inv,Eind,scc,Dam,Emissions
76.958275,0.0028556,105.17594,104.8756,27.87756,32.001286,21.867367,0.3003404,34.601288
79.46834,0.0031489278,108.663414,108.321236,28.808937,32.39298,22.460365,0.34217325,34.933865
82.05291,0.0034087463,112.25147,111.868835,29.767796,32.797928,23.086195,0.3826368,35.281036
84.713905,0.003641693,115.93565,115.51346,30.747242,33.210308,23.743603,0.42220202,35.636955
87.450714,0.003853619,119.714096,119.252754,31.745531,33.62813,24.43336,0.46133253,35.999607
90.2718,0.00404945,123.58698,123.086525,32.753704,34.03865,25.157742,0.5004594,36.356205
93.16934,0.0042332117,127.55083,127.010864,33.77571,34.442837,25.912302,0.53994966,36.70769
96.1347,0.004408124,131.60349,131.02336,34.817947,34.844486,26.694263,0.5801245,37.057846
99.1744,0.0045767287,135.74457,135.1233,35.87315,35.243164,27.507746,0.62126607,37.406197
102.281204,0.00474102,139.97145,139.30785,36.945633,35.633553,28.346786,0.6636075,37.747402
105.45491,0.0049025533,144.2819,143.57457,38.033024,36.01091,29.21096,0.70734984,38.0767
108.68855,0.0050625284,148.67857,147.92587,39.14491,36.38211,30.097168,0.75268954,38.40093
111.99346,0.005221861,153.16058,152.36081,40.268696,36.738365,31.00964,0.7997833,38.711277
115.37294,0.0053812545,157.72542,156.87666,41.398495,37.08127,31.949938,0.84876055,39.009323
118.80481,0.0055412343,162.37083,161.47108,42.55419,37.413036,32.908268,0.89973474,39.297253
122.29413,0.005702194,167.09676,166.14394,43.730583,37.73307,33.887104,0.95281816,39.57444
125.84318,0.0058644232,171.90338,170.89528,44.925426,38.041172,34.88569,1.0081142,39.84068
129.46344,0.006028138,176.79033,175.72461,46.126656,38.334103,35.910744,1.0657165,40.09269
133.14958,0.0061934907,181.75763,180.63193,47.33958,38.612923,36.96349,1.1257142,40.331528
136.88464,0.0063605825,186.80545,185.61726,48.58125,38.8781,38.036484,1.1881914,40.55763
140.67242,0.0065294793,191.93314,190.6799,49.847122,39.128963,39.129135,1.2532233,40.7703
144.52196,0.006700215,197.14105,195.82016,51.128452,39.365692,40.244778,1.3208874,40.96971
148.43488,0.006872804,202.42969,201.0384,52.423946,39.58714,41.3866,1.3912594,41.154686
152.40596,0.0070472406,207.79915,206.33473,53.73891,39.794247,42.550934,1.4644105,41.32615
156.43484,0.0072235055,213.24811,211.70772,55.072304,39.986027,43.73582,1.540399,41.483097
160.523,0.0074015697,218.77728,217.15797,56.42315,40.161476,44.943832,1.6192952,41.62451
164.67383,0.007581395,224.38501,222.68387,57.786285,40.31745,46.176704,1.7011515,41.747215
168.88187,0.007762932,230.0737,228.28766,59.16957,40.45712,47.433716,1.7860465,41.854378
173.14647,0.007946121,235.84373,233.9697,60.573917,40.579838,48.71439,1.8740427,41.945328
177.47,0.008130898,241.69485,239.72966,61.996643,40.685966,50.01635,1.9651963,42.02041
181.84854,0.008317193,247.62674,245.56717,63.441303,40.775356,51.338352,2.0595593,42.079453
186.28346,0.008504938,253.64008,251.4829,64.90713,40.848373,52.681118,2.1571932,42.122818
190.77711,0.008694059,259.73526,257.4771,66.3921,40.90556,54.045956,2.258154,42.151028
195.32997,0.008884483,265.91272,263.55023,67.896065,40.94695,55.43431,2.3624969,42.1641
199.9415,0.009076136,272.17288,269.7026,69.41992,40.97145,56.848534,2.4702783,42.160927
204.61285,0.009268939,278.51642,275.93484,70.96311,40.980247,58.285812,2.5815516,42.142673
209.34378,0.009462818,284.94376,282.2474,72.52633,40.973377,59.746254,2.6963708,42.109375
214.1285,0.009657695,291.45508,288.6403,74.115265,40.949253,61.232117,2.814784,42.05942
218.97342,0.009853496,298.05276,295.1159,75.725945,40.90955,62.743126,2.9368622,41.994473
223.87831,0.01005014,304.7357,301.67307,77.35738,40.854465,64.27949,3.0626366,41.914726
228.84392,0.010247548,311.50467,308.31253,79.00962,40.783875,65.84213,3.1921592,41.820023
233.87144,0.010445641,318.3598,315.03427,80.68137,40.698074,67.42934,3.325472,41.710663
238.9583,0.010644344,325.30054,321.83795,82.37514,40.600883,69.04067,3.462611,41.590446
244.09654,0.010843576,332.33008,328.72647,84.101746,40.492863,70.67596,3.6036468,41.459934
249.29759,0.011043267,339.44788,335.69928,85.849045,40.36934,72.33648,3.7486138,41.31442
254.57085,0.01124335,346.65533,342.75778,87.60877,40.23055,74.03344,3.8975673,41.15414
259.9091,0.011443759,353.9495,349.89902,89.38525,40.075115,75.7581,4.050513,40.977703
265.31305,0.011644421,361.32843,357.12094,91.17581,39.904915,77.51039,4.2074604,40.78698
270.7918,0.01184526,368.7926,364.4242,92.97193,39.720657,79.29424,4.3684444,40.58267
276.32144,0.012046197,376.34323,371.80975,94.79918,39.529285,81.102425,4.533505,40.371693
281.90472,0.012247158,383.98346,379.28073,96.65729,39.324547,82.93456,4.7027063,40.1478
287.54956,0.012448076,391.71497,386.83884,98.5401,39.107117,84.792946,4.8760977,39.91165
293.25354,0.01264889,399.536,394.48236,100.44816,38.87643,86.678535,5.053687,39.66267
299.01877,0.012849529,407.44443,402.20895,102.37713,38.63215,88.59102,5.2354693,39.400513
304.85547,0.013049929,415.4411,410.01965,104.317085,38.368004,90.53966,5.4214773,39.118896
310.76245,0.013250021,423.52875,417.917,106.27177,38.083775,92.53127,5.611765,38.817596
316.7332,0.013449721,431.70682,425.90048,108.24764,37.78611,94.55237,5.8063364,38.503246
322.77045,0.013648938,439.97583,433.9706,110.241875,37.468792,96.6041,6.0052032,38.16962
328.873,0.013847583,448.33267,442.12436,112.25302,37.13627,98.6859,6.2083244,37.821163
335.03488,0.014045561,456.7773,450.36163,114.28709,36.790184,100.796616,6.415693,37.459507
341.25864,0.014242776,465.3132,458.68588,116.34495,36.431194,102.93835,6.6273518,37.0853
347.5396,0.01443914,473.94263,467.09927,118.43378,36.062565,105.106804,6.8433237,36.701797
353.88275,0.014634579,482.66183,475.59824,120.544716,35.6818,107.30432,7.0635524,36.306496
360.27774,0.014829014,491.47266,484.1846,122.68997,35.28923,109.526184,7.288056,35.899723
366.7244,0.015022377,500.37674,492.85986,124.8711,34.885147,111.7723,7.5168476,35.48176
373.22937,0.01521459,509.37643,501.6265,127.08417,34.471424,114.04761,7.749954,35.054466
379.80634,0.015405597,518.47516,510.48773,129.31866,34.04881,116.35739,7.987419,34.618595
386.45554,0.015595326,527.67303,519.4438,131.57463,33.61755,118.70195,8.229233,34.174385
393.183,0.015783723,536.97015,528.49475,133.84601,33.176323,121.08223,8.475389,33.720497
399.9869,0.015970735,546.3648,537.639,136.13277,32.724945,123.49752,8.725847,33.256744
406.85178,0.016156305,555.8549,546.8743,138.448,32.260303,125.943,8.980561,32.780014
413.7689,0.016340375,565.4422,556.20264,140.80183,31.780325,128.41205,9.239537,32.288216
420.75928,0.016522879,575.12726,565.6246,143.17462,31.291958,130.91684,9.502759,31.7883
427.8242,0.01670375,584.9112,575.141,145.566,30.794048,133.45944,9.77021,31.279106
434.955,0.016882919,594.7928,584.751,147.9834,30.2855,136.02022,10.041839,30.759527
442.1541,0.017060323,604.76855,594.45105,150.42117,29.768604,138.61429,10.317547,30.231853
449.42288,0.017235896,614.8392,604.2419,152.87872,29.244093,141.24115,10.597303,29.69681
456.7585,0.017409582,625.00616,614.12506,155.36028,28.710468,143.89925,10.881097,29.152891
464.16187,0.017581325,635.2708,624.10187,157.8662,28.168472,146.5932,11.168903,28.600834
471.63397,0.017751064,645.63184,634.1712,160.39445,27.61907,149.31752,11.460652,28.041601
479.16595,0.017918753,656.0904,644.3341,162.9541,27.056778,152.07634,11.756322,27.469702
486.7635,0.018084336,666.6489,654.593,165.54285,26.488132,154.86572,12.0559025,26.891666
494.43417,0.018247752,677.3108,664.9515,168.1567,25.914278,157.69254,12.3594,26.30864
502.1794,0.018408945,688.07495,675.40814,170.79214,25.3304,160.54979,12.666733,25.715794
509.98236,0.018567868,698.9325,685.9548,173.45804,24.7373,163.43588,12.977686,25.113932
517.8543,0.018724464,709.8876,696.5954,176.14755,24.139729,166.35825,13.292265,24.507795
525.80676,0.018878672,720.94324,707.3328,178.85228,23.538855,169.32129,13.610452,23.89855
533.8287,0.019019654,732.1001,718.1758,181.59451,22.949257,172.32343,13.924292,23.300774
541.93964,0.019149905,743.3591,729.12384,184.35199,22.357704,175.3551,14.235255,22.701231
550.1295,0.019271357,754.71545,740.1711,187.12582,21.747408,178.3949,14.54439,22.083122
558.38416,0.01938545,766.1667,751.3142,189.93085,21.139683,181.46434,14.852485,21.467764
566.7143,0.019493254,777.7149,762.5546,192.75742,20.533722,184.56783,15.1601925,20.854343
575.1316,0.019595573,789.362,773.89404,195.59471,19.925045,187.70544,15.468,20.238375
583.60065,0.019693034,801.114,785.33777,198.48427,19.31824,190.88292,15.776366,19.624445
592.1232,0.019786088,812.96643,796.88104,201.41841,18.706242,194.09163,16.085426,19.005487
600.7071,0.019875098,824.9175,808.5221,204.38252,18.063673,197.32585,16.395315,18.356113
609.3658,0.019960329,836.97595,820.26953,207.37688,17.41939,200.60236,16.706314,17.70518
618.1038,0.020041898,849.14105,832.1227,210.39635,16.772892,203.92137,17.018398,17.052185
626.9003,0.020119911,861.41296,844.0814,213.45093,16.072178,207.25638,17.331553,16.345121
635.7902,0.020194441,873.7888,856.1431,216.51166,15.360802,210.62614,17.645678,15.627539
644.73865,0.020265432,886.2677,868.30707,219.61514,14.65157,214.02513,17.960598,14.912242
653.7601,0.020332826,898.8493,880.5731,222.74655,13.942394,217.45749,18.276146,14.197139
662.85114,0.020396596,911.53644,892.9442,225.91145,13.230541,220.91539,18.592241,13.479493
672.02496,0.020456722,924.3297,905.42096,229.09914,12.524783,224.41452,18.908756,12.768074
681.2819,0.0205132,937.2288,918.00323,232.3095,11.825708,227.95523,19.225561,12.063468
690.62286,0.020566039,950.23395,930.6914,235.54198,11.133435,231.54016,19.54255,11.365788
700.03326,0.020615261,963.34015,943.4806,238.80533,10.443908,235.15672,19.859509,10.670978
709.5196,0.02066091,976.5486,956.37213,242.09453,9.756707,238.81007,20.176384,9.978615
719.08954,0.02070302,989.86255,969.3693,245.40634,9.077295,242.5051,20.493145,9.294157
728.7436,0.02074162,1003.2823,982.47266,248.74069,8.406145,246.24237,20.809698,8.618075
738.48035,0.020776747,1016.80835,995.6824,252.09996,7.744143,250.02148,21.125969,7.9512544
748.28265,0.020808453,1030.441,1008.99915,255.50288,7.095239,253.83765,21.441883,7.2976413
758.1624,0.020836782,1044.1716,1022.41455,258.92755,6.4535475,257.6923,21.757175,6.651347
768.1233,0.020861804,1058.0009,1035.9291,262.3713,5.819428,261.58704,22.071808,6.01273
778.1792,0.020883577,1071.9296,1049.5438,265.82126,5.193161,265.52707,22.385723,5.382068
788.3139,0.020902155,1085.9567,1063.2578,269.29263,4.575118,269.50653,22.698835,4.7597303
798.52594,0.020917593,1100.0837,1077.0725,272.78873,3.9660277,273.5246,23.011103,4.146442
808.8104,0.020929938,1114.311,1090.9885,276.31546,3.3667345,277.5791,23.322462,3.5430467
819.1762,0.020939248,1128.6384,1105.0056,279.86377,2.7781193,281.6773,23.632837,2.9504225
829.61993,0.02094557,1143.0676,1119.1254,283.43964,2.202468,285.8262,23.942202,2.3708537
840.16125,0.02094896,1157.5977,1133.3473,287.02298,1.6408092,290.02448,24.250465,1.8053659
850.77856,0.020949481,1172.234,1147.6763,290.6432,1.1023229,294.2583,24.557693,1.2631382
861.49304,0.020947207,1186.9717,1162.1078,294.28,0.6059023,298.55576,24.863739,0.7630609
872.30695,0.020942228,1201.8068,1176.6383,297.95047,0.229101,302.92856,25.168512,0.3826863
883.2191,0.020934695,1216.75,1191.2778,301.71097,0.12659532,307.40656,25.472294,0.2766884
894.22614,0.020924987,1231.7876,1206.0126,305.49445,0.10205246,312.00937,25.77514,0.24873275
905.3204,0.020913964,1246.9349,1220.8566,309.3019,0.084282294,316.66235,26.078352,0.22762741
916.4991,0.020902395,1262.1926,1235.8098,313.1355,0.07164463,321.36227,26.382849,0.21173039
927.7454,0.02089081,1277.5564,1250.8672,317.0063,0.061698925,326.1008,26.689188,0.19859944
939.05914,0.020879554,1293.0234,1266.0256,320.9132,0.06088638,330.89734,26.997753,0.19467413
950.44293,0.02086885,1308.5846,1281.2759,324.8418,0.060433112,335.7423,27.308655,0.19117886
961.8999,0.020858843,1324.2457,1296.6237,328.7943,0.05912791,340.627,27.622234,0.18690085
973.4213,0.020849599,1340.0063,1312.0677,332.77896,0.05867891,345.55667,27.938595,0.1835466
985.0023,0.020841146,1355.8698,1327.6119,336.8049,0.062241856,350.54578,28.25788,0.1842703
996.6569,0.020833455,1371.8422,1343.262,340.8636,0.06819756,355.5861,28.580212,0.18745144
1008.38696,0.020826507,1387.919,1359.0134,344.94785,0.07351136,360.66858,28.905506,0.19005367
1020.1916,0.020820264,1404.0989,1374.8652,349.05753,0.07822147,365.7932,29.233711,0.19211394
1032.0713,0.020814678,1420.3826,1390.8176,353.19223,0.08234579,370.96033,29.564804,0.19364862
1044.0247,0.020809699,1436.768,1406.8693,357.35202,0.08595984,376.1693,29.898708,0.19473192
1056.0531,0.020805271,1453.2566,1423.0212,361.53696,0.08912155,381.4209,30.2354,0.19542035
1068.1553,0.020801332,1469.847,1439.2723,365.74686,0.09189726,386.71463,30.574774,0.19577903
1080.3302,0.02079784,1486.5374,1455.6206,369.98062,0.09433026,392.05026,30.916765,0.19585001
1092.581,0.020794744,1503.3284,1472.0671,374.23654,0.096169576,397.4315,31.261332,0.19538102
1104.9022,0.020791994,1520.219,1488.6106,378.5186,0.09659118,402.8563,31.608387,0.19354674
1117.2949,0.020789552,1537.2081,1505.2501,382.82443,0.096782714,408.32278,31.957869,0.19153374
1129.7599,0.020787375,1554.2964,1521.9867,387.15485,0.09681809,413.83096,32.309742,0.18941471
1142.2954,0.020785432,1571.481,1538.817,391.50824,0.096712224,419.3807,32.66391,0.18720344
1154.9032,0.020783689,1588.7644,1555.744,395.88574,0.09653034,424.97238,33.020382,0.18496393
1167.5807,0.020782122,1606.1434,1572.7644,400.28644,0.09627425,430.60532,33.37907,0.1826971
1180.3296,0.020780712,1623.6202,1589.8802,404.71106,0.095959745,436.2799,33.739983,0.18041746
1193.1481,0.020779436,1641.1921,1607.0891,409.15866,0.095626086,441.9956,34.103046,0.17816341
1206.037,0.020778276,1658.8599,1624.3916,413.6292,0.095288455,447.75278,34.468246,0.17594905
1218.9927,0.020777218,1676.6224,1641.787,418.12573,0.09597761,453.55472,34.835552,0.17480421
1232.0134,0.02077625,1694.4761,1659.2711,422.64603,0.097355805,459.39987,35.20486,0.17439005
1245.1008,0.020775361,1712.4205,1676.8442,427.18784,0.09841749,465.2846,35.576153,0.17370014
1258.2537,0.02077455,1730.4534,1694.504,431.75064,0.09918326,471.20853,35.94939,0.1727542
1271.4717,0.020773808,1748.5748,1712.2502,436.33438,0.0997006,477.1718,36.32456,0.17159873
1284.7555,0.02077313,1766.7859,1730.0842,440.9396,0.10000546,483.17438,36.70167,0.17026877
1298.1044,0.020772513,1785.085,1748.0043,445.56567,0.10011891,489.21628,37.0807,0.1687846
1311.5189,0.020771941,1803.4731,1766.0115,450.21255,0.10008041,495.29752,37.46164,0.1671848
1324.9983,0.020771423,1821.95,1784.1053,454.88086,0.09989079,501.418,37.844494,0.16546935
1338.5425,0.020770948,1840.5142,1802.2849,459.56964,0.09959374,507.5777,38.229225,0.16368124
1352.1508,0.020770513,1859.1655,1820.5498,464.2793,0.099189125,513.7763,38.615826,0.16181941
1365.8239,0.02077011,1877.9053,1838.901,469.01,0.098705724,520.01404,39.0043,0.15991195
1379.5603,0.020769738,1896.7311,1857.3364,473.7613,0.098158866,526.2904,39.394608,0.15797344
1393.3608,0.020769399,1915.6442,1875.8573,478.5335,0.09754193,532.60565,39.786774,0.15599641
1407.2247,0.020769088,1934.643,1894.4622,483.32605,0.09687775,538.9598,40.180767,0.15400314
1421.1525,0.020768799,1953.7281,1913.1516,488.1387,0.096180245,545.3526,40.576588,0.15200675
1435.1426,0.020768534,1972.8988,1931.9246,492.97235,0.095450364,551.7836,40.974216,0.15000752
1449.1948,0.020768296,1992.1534,1950.7799,497.82565,0.094678774,558.25287,41.373634,0.1479954
1463.3082,0.02076808,2011.4933,1969.7183,502.70047,0.09349999,564.76025,41.774853,0.14560433
1477.4797,0.020767879,2030.9181,1988.7402,507.5998,0.0907288,571.3059,42.17786,0.1416484
1491.7123,0.0207677,2050.4258,2007.8433,512.519,0.08799883,577.8896,42.582626,0.13776062
1506.0065,0.020767532,2070.0178,2027.0287,517.4583,0.08533699,584.51105,42.989162,0.13396731
1520.3616,0.020767378,2089.6924,2046.295,522.4175,0.08273029,591.17035,43.397434,0.13025486
1534.7739,0.02076723,2109.4487,2065.6414,527.3988,0.08025785,597.86554,43.807407,0.12670186
1549.1962,0.02076709,2129.2878,2085.0686,532.4511,0.07925522,604.5729,44.219112,0.1246432
1563.6793,0.020766957,2149.2107,2104.578,537.52423,0.07836541,611.3176,44.632565,0.122721344
1578.2213,0.020766836,2169.2148,2124.1672,542.61774,0.07754073,618.0993,45.04773,0.12088811
1592.8242,0.020766724,2189.303,2143.8381,547.7323,0.07681247,624.9186,45.46465,0.11917422
1607.4849,0.02076663,2209.4705,2163.5872,552.8661,0.07613677,631.7741,45.883255,0.11753532
1622.1979,0.02076655,2229.7183,2183.4148,558.0256,0.07441936,638.6598,46.303562,0.11487664
1636.9669,0.020766491,2250.0483,2203.3228,563.2092,0.072263375,645.5788,46.725605,0.11180077
1651.795,0.020766443,2270.46,2223.3105,568.4128,0.07028817,652.5349,47.149376,0.10892661
1666.6818,0.020766417,2290.952,2243.3772,573.6366,0.068454154,659.5276,47.57486,0.10621405
1681.6273,0.0207664,2311.5254,2263.5232,578.88055,0.066773534,666.557,48.00206,0.10367484
1696.6304,0.020766396,2332.1775,2283.7466,584.1438,0.06523822,673.62396,48.43092,0.10130045
1711.6895,0.020766404,2352.9072,2304.046,589.4264,0.06416404,680.73047,48.861423,0.09940629
1726.803,0.020766424,2373.7139,2324.4202,594.7296,0.06336743,687.8713,49.293545,0.09780837
1741.9739,0.020766458,2394.5996,2344.8723,600.05255,0.062682,695.0478,49.727352,0.09633984
1757.1993,0.020766512,2415.5605,2365.398,605.3939,0.062073458,702.2595,50.16277,0.094965994
1772.4803,0.02076658,2436.5984,2385.9988,610.7548,0.061545797,709.5063,50.59982,0.093690425
1787.8151,0.02076667,2457.7104,2406.672,616.1341,0.061070215,716.78754,51.038464,0.09248397
1803.2036,0.020766782,2478.8965,2427.4175,621.5312,0.06065526,724.10315,51.4787,0.091354735
1818.6451,0.020766912,2500.1555,2448.235,626.9468,0.060283173,731.45264,51.920513,0.09028464
1834.1364,0.02076706,2521.4885,2469.1245,632.38446,0.059908878,738.83673,52.3639,0.08922818
1849.6697,0.02076723,2542.892,2490.0833,637.84894,0.0594751,746.25525,52.80883,0.08812776
1865.2559,0.020767424,2564.3694,2511.1138,643.3314,0.059097067,753.70776,53.25535,0.087098226
1880.8931,0.020767642,2585.9167,2532.2136,648.832,0.058765456,761.1931,53.703396,0.08612994
1896.5807,0.020767886,2607.5342,2553.381,654.34985,0.058457777,768.71136,54.15297,0.085200086
1912.3201,0.02076815,2629.2224,2574.6187,659.8849,0.058179047,776.26306,54.604088,0.08431328
1928.1116,0.02076844,2650.9795,2595.9226,665.43414,0.058052126,783.8519,55.056705,0.08359212
1943.9517,0.020768745,2672.803,2617.292,671.0,0.057946045,791.47375,55.510765,0.082905285
1959.8398,0.020769075,2694.692,2638.7253,676.58124,0.057817727,799.1265,55.96625,0.08220946
1975.7764,0.020769428,2716.6472,2660.224,682.1792,0.05765874,806.8113,56.42321,0.08149583
1991.7585,0.020769807,2738.6653,2681.7837,687.7915,0.057477035,814.5261,56.881546,0.08077216
2007.7875,0.020770209,2760.7476,2703.4062,693.42004,0.05726968,822.272,57.3413,0.08003514
2023.8616,0.020770635,2782.8918,2725.0894,699.0632,0.057041004,830.0474,57.802433,0.079288855
2039.9827,0.020771084,2805.1006,2746.8354,704.722,0.05678997,837.854,58.26498,0.07853196
2056.15,0.02077155,2827.3723,2768.643,710.39624,0.05651711,845.69073,58.7289,0.077764705
2072.361,0.020772044,2849.7043,2790.51,716.0847,0.056217946,853.5568,59.194176,0.0769824
2088.6174,0.020772552,2872.098,2812.437,721.7882,0.05590527,861.4527,59.660805,0.07619757
2104.9119,0.020773087,2894.548,2834.4197,727.5083,0.05573633,869.37573,60.1287,0.07556724
2121.25,0.020773645,2917.058,2856.4597,733.2428,0.05553806,877.3278,60.597927,0.074918054
2137.63,0.020774221,2939.6248,2878.5566,738.9907,0.055275332,885.30835,61.068417,0.07421466
2154.049,0.020774823,2962.2476,2900.7073,744.7536,0.05486487,893.31805,61.540173,0.073373556
2170.5098,0.020775443,2984.9272,2922.9143,750.5305,0.05443591,901.3559,62.013187,0.07252376
2187.012,0.020776087,3007.6636,2945.176,756.3205,0.053981263,909.42175,62.487484,0.07165786
2203.5557,0.020776754,3030.4565,2967.4932,762.124,0.05351757,917.51526,62.963047,0.07079223
2220.1382,0.020777438,3053.3025,2989.862,767.94006,0.05303891,925.63574,63.4398,0.06992077
