con,Omega,Theta,ygross,ynet,inv,Eind,scc,carbontax,Abatement,Dam,Emissions
77.18365,0.0028556,0.00035697498,105.17594,104.8756,27.654512,32.11215,21.543648,20.62449,0.037545178,0.3003404,34.71215
79.70375,0.0031489278,0.0003876705,108.70566,108.36336,28.6176,32.494778,22.125738,21.86043,0.042141978,0.3423063,35.035656
82.31151,0.0034088835,0.00041635506,112.345184,111.96221,29.604084,32.892418,22.739788,23.012806,0.04677549,0.38297164,35.375526
85.01776,0.0036420599,0.000442841,116.09284,115.67002,30.601038,33.30347,23.389853,24.081835,0.05141067,0.42281708,35.730118
87.800385,0.0038542761,0.00046690056,119.94761,119.48529,31.629124,33.72721,24.07545,25.06516,0.056003604,0.46231118,36.09869
90.67596,0.0040504364,0.0004907064,123.904495,123.402626,32.666115,34.15059,24.793642,26.037964,0.06080073,0.5018673,36.46814
93.645905,0.004234565,0.00051512854,127.96323,127.42136,33.70982,34.56857,25.545017,27.029476,0.065917514,0.54186857,36.833424
96.683,0.004409885,0.0005384754,132.12254,131.53989,34.786064,34.98803,26.32091,27.985785,0.07114474,0.5826452,37.20139
99.80552,0.004578946,0.0005612973,136.37991,135.75545,35.873722,35.40486,27.132147,28.92604,0.07654968,0.62447625,37.56789
103.00608,0.0047437516,0.0005837298,140.73444,140.06682,36.978996,35.817528,27.97522,29.855515,0.08215089,0.6676092,37.931377
106.279655,0.004905865,0.00060588063,145.1835,144.47125,38.104053,36.22442,28.848211,30.778269,0.08796387,0.7122506,38.290207
109.62568,0.005066498,0.000628154,149.72638,148.96779,39.248528,36.622696,29.752752,31.707602,0.094051234,0.75858843,38.64151
113.03886,0.005226585,0.0006502025,154.36346,153.55666,40.417965,37.013763,30.681322,32.633064,0.10036751,0.80679375,38.98668
116.53106,0.0053868396,0.0006724833,159.09383,158.23682,41.599365,37.394783,31.639542,33.5692,0.106987946,0.857013,39.322834
120.09793,0.0055478066,0.00069587096,163.917,163.00761,42.796257,37.761044,32.624203,34.542984,0.11406509,0.90937984,39.645264
123.7305,0.005709897,0.00071936334,168.83125,167.86725,44.01598,38.116375,33.631226,35.52389,0.12145101,0.96400905,39.95775
127.426765,0.00587341,0.0007429225,173.83574,172.81474,45.259586,38.460636,34.659832,36.510967,0.12914647,1.0210086,40.260143
131.2025,0.0060385647,0.0007669635,178.93015,177.84967,46.51076,38.791237,35.718563,37.517174,0.1372329,1.0804813,40.54982
135.04895,0.0062055225,0.00079132,184.11473,182.97221,47.77847,39.108948,36.8025,38.53755,0.14569367,1.142528,40.82755
138.95494,0.006374391,0.00081604643,189.3895,188.18225,49.073742,39.41301,37.908447,39.574078,0.15455063,1.2072426,41.092537
142.91928,0.00654524,0.0008412368,194.75415,193.47945,50.397396,39.702793,39.0363,40.629673,0.16383438,1.2747127,41.34413
146.9503,0.00671811,0.00086674927,200.20848,198.86348,51.740807,39.978703,40.185986,41.700317,0.17353056,1.3450227,41.58272
151.05081,0.006893016,0.0008938761,205.75322,204.33496,53.101498,40.234364,41.36573,42.824387,0.1839179,1.4182603,41.80191
155.21913,0.0070699593,0.00092183007,211.38976,209.89525,54.482624,40.473694,42.569958,43.97851,0.19486544,1.494517,42.005596
159.45297,0.007248912,0.0009506141,217.1178,215.54393,55.886063,40.696243,43.80067,45.162952,0.20639525,1.5738679,42.193314
163.74707,0.007429836,0.0009801275,222.939,221.28258,57.318615,40.902847,45.05332,46.37472,0.21850862,1.6564,42.36588
168.10562,0.0076126875,0.0010103531,228.85275,227.11057,58.775475,41.09306,46.328396,47.613613,0.23122208,1.7421846,42.522823
172.5313,0.0077974107,0.0010411916,234.85948,233.02821,60.25428,41.2675,47.627106,48.876766,0.24453373,1.831296,42.664757
177.02567,0.007983948,0.0010729475,240.95917,239.03537,61.753254,41.424294,48.959938,50.173306,0.25853655,1.9238056,42.789776
181.58717,0.008172238,0.0011056763,247.15213,245.13235,63.27416,41.563274,50.322952,51.50481,0.27327025,2.0197861,42.89772
186.21568,0.008362213,0.0011390783,253.4385,251.31918,64.81723,41.685696,51.70928,52.862915,0.28868628,2.1193066,42.98979
190.91202,0.008553803,0.0011732519,259.8194,257.597,66.38275,41.79122,53.11997,54.25055,0.30483362,2.222444,43.065666
195.67397,0.008746931,0.0012079922,266.2957,263.9664,67.97354,41.88079,54.55492,55.662163,0.3216831,2.3292701,43.126255
200.50677,0.008941526,0.0012435404,272.86673,270.4269,69.58384,41.95306,56.020077,57.104847,0.33932084,2.4398448,43.170208
205.40819,0.00913751,0.0012800202,279.53314,276.9789,71.216194,42.00752,57.512634,58.58222,0.35780808,2.5542371,43.196995
210.38382,0.009334807,0.0013173305,286.2964,283.6239,72.86644,42.04472,59.03528,60.091686,0.377147,2.6725218,43.207146
215.42822,0.009533335,0.0013554384,293.15488,290.36014,74.53835,42.064514,60.58525,61.632557,0.39735335,2.7947438,43.200512
220.54233,0.009733013,0.001394387,300.10895,297.188,76.23128,42.06681,62.162014,63.206196,0.41846803,2.9209645,43.17698
225.72699,0.009933757,0.001434393,307.15924,304.10797,77.94476,42.05053,63.767307,64.81896,0.44058704,3.051245,43.135456
230.98163,0.010135485,0.0014753946,314.3047,311.11908,79.67843,42.01583,65.39971,66.469315,0.46372345,3.1856306,43.076088
236.29816,0.010338107,0.0015174198,321.54562,318.22144,81.4404,41.962616,67.05771,68.15827,0.4879197,3.324173,42.998764
241.68024,0.01054154,0.001560265,328.88358,325.41663,83.22866,41.892143,68.74402,69.88039,0.5131455,3.4669392,42.90473
247.14087,0.0107456865,0.0016039961,336.32208,332.70807,85.03353,41.80447,70.466,71.63782,0.53945935,3.6140115,42.794037
252.6699,0.010950463,0.0016487021,343.8607,340.09525,86.864624,41.69918,72.21705,73.433235,0.5669238,3.7654338,42.666252
258.26688,0.011155774,0.0016941348,351.4987,347.57745,88.72172,41.577217,73.99736,75.260284,0.59548616,3.9212399,42.522293
263.93262,0.011361532,0.0017402171,359.2364,355.1549,90.604256,41.439148,75.8069,77.117065,0.62514937,4.081476,42.362736
269.671,0.011567651,0.0017871207,367.07422,362.82803,92.50863,41.284157,77.64579,79.00869,0.6560059,4.2461867,42.186745
275.48264,0.0117740445,0.0018348224,375.013,370.59756,94.434944,41.11248,79.51438,80.934875,0.6880822,4.4154196,41.994545
281.36786,0.011980619,0.0018833057,383.05316,378.46402,96.38339,40.924374,81.41295,82.89544,0.7214062,4.5892143,41.786385
287.32733,0.012187295,0.0019325425,391.1955,386.42786,98.353745,40.719902,83.34195,84.8902,0.75600195,4.767615,41.56231
293.35345,0.012393983,0.0019824337,399.4403,394.4897,100.354164,40.4998,85.2962,86.91663,0.791864,4.950657,41.323055
299.451,0.012600598,0.0020331684,407.78534,402.647,102.37738,40.26293,87.27913,88.980385,0.8290963,5.138339,41.067467
305.62424,0.012807054,0.0020847602,416.23083,410.90012,104.41925,40.009426,89.29435,91.08208,0.86774147,5.330691,40.79567
311.87418,0.013013261,0.0021371527,424.778,419.25024,106.4801,39.739582,91.342384,93.22082,0.90781546,5.5277476,40.50795
318.18085,0.013219138,0.0021905226,433.42847,427.69894,108.5812,39.453014,93.40598,95.40151,0.9494349,5.729551,40.20391
324.5646,0.013424595,0.0022443645,442.18643,436.25027,110.70657,39.152294,95.50323,97.611275,0.9924276,5.9361744,39.886116
331.02673,0.013629543,0.002298616,451.05292,444.90527,112.85586,38.83802,97.633675,99.84871,1.0367974,6.147645,39.555157
337.55322,0.013833897,0.0023539774,460.02814,453.6642,115.0431,38.50704,99.79233,102.13306,1.0828959,6.3639827,39.20787
344.1497,0.014037578,0.0024101394,469.10965,462.5245,117.26007,38.1606,101.98079,104.45652,1.1306198,6.5851636,38.845493
350.82333,0.014240503,0.0024666379,478.29764,471.48642,119.50011,37.80101,104.20397,106.807045,1.1797872,6.811199,38.47033
357.57596,0.014442583,0.002523229,487.59424,480.55215,121.76363,37.429413,106.46406,109.178894,1.2303119,7.04212,38.083515
364.40338,0.014643742,0.0025799945,497.00183,489.72382,124.05699,37.045803,108.75675,111.57463,1.282262,7.2779665,37.685036
371.30307,0.014843901,0.0026369144,506.5201,499.0014,126.38251,36.650414,111.08113,113.99408,1.3356503,7.518734,37.275105
378.28275,0.015042992,0.0026940673,516.14905,508.3846,128.73224,36.24286,113.44036,116.43996,1.3905404,7.764426,36.85335
385.33344,0.01524094,0.002752039,525.8882,517.87317,131.11452,35.820553,115.840324,118.928505,1.447265,8.015031,36.41716
392.46307,0.01543768,0.0028103683,535.7399,527.46936,133.52391,35.38597,118.2784,121.44761,1.5056266,8.270582,35.969013
399.67102,0.015633142,0.0028691713,545.70526,537.1742,135.96187,34.93868,120.75265,124.00108,1.565722,8.531088,35.508465
406.9576,0.015827244,0.0029280689,555.7863,546.98975,138.43053,34.480564,123.25892,126.57927,1.6273806,8.796566,35.037395
414.32422,0.016019925,0.002987082,565.97864,556.9117,140.92395,34.011383,125.80066,129.18329,1.6906248,9.066936,34.555557
421.7717,0.016211106,0.003046166,576.2826,566.9404,143.44173,33.531452,128.3788,131.8124,1.7554523,9.342177,34.063255
429.3012,0.016400732,0.0031055477,586.69836,577.07605,145.98274,33.03993,130.99432,134.47316,1.8220198,9.622282,33.55964
436.9134,0.016588729,0.0031655075,597.2262,587.319,148.5464,32.535732,133.64789,137.17354,1.890524,9.907223,33.043625
444.60663,0.01677503,0.0032254888,607.86475,597.6678,151.1334,32.021366,136.3383,139.89928,1.9606609,10.19695,32.517704
452.37973,0.016959574,0.0032855063,618.61536,608.1239,153.74617,31.496984,139.0602,142.65117,2.0324645,10.491454,31.98204
460.23856,0.017142285,0.0033454902,629.48114,618.69037,156.382,30.963085,141.8172,145.42807,2.1059227,10.790745,31.437113
468.1861,0.017323103,0.003405135,640.4645,629.3696,159.04042,30.421415,144.61594,148.2219,2.180868,11.094831,30.884665
476.20355,0.017501967,0.0034664234,651.5643,640.16064,161.73802,29.863413,147.45375,151.0865,2.2585976,11.403657,30.316128
484.30066,0.01767882,0.0035287037,662.7782,651.06104,164.46297,29.291933,150.32777,154.00504,2.3387477,11.717136,29.734356
492.47888,0.017853588,0.0035912406,674.10333,662.0681,167.21162,28.71021,153.23552,156.95833,2.4208672,12.035164,29.14257
500.73608,0.0180262,0.0036549922,685.5429,673.1852,169.9886,28.114433,156.1769,159.97272,2.5056539,12.357732,28.536964
509.07092,0.018196577,0.0037193522,697.10175,684.41693,172.80045,27.507511,159.14478,163.0327,2.5927672,12.684866,27.920435
517.4895,0.01836465,0.0037840845,708.77814,695.76166,175.6393,26.890684,162.14328,166.13214,2.6820762,13.016461,27.29422
525.9978,0.01853034,0.0038482226,720.57086,707.21844,178.49913,26.268047,165.18318,169.2458,2.772917,13.352423,26.662407
534.5718,0.01869357,0.0039129364,732.4808,718.7881,181.40375,25.634941,168.26038,172.40556,2.8661509,13.692681,26.020334
543.2222,0.018854288,0.0039788466,744.50305,730.46594,184.33736,24.988605,171.37888,175.62915,2.962263,14.037074,25.365236
551.968,0.019012427,0.0040434967,756.6407,742.2551,187.28578,24.33982,174.54141,178.85031,3.0594742,14.385575,24.707888
560.7753,0.019167913,0.0041076555,768.89734,754.1591,190.28596,23.68559,177.73465,182.09032,3.1583652,14.738156,24.045288
569.6444,0.019309813,0.0041673174,781.27795,766.19165,193.35417,23.043121,180.96057,185.24007,3.2558331,15.086331,23.39464
578.61816,0.01944065,0.004222825,793.7878,778.3561,196.45102,22.411163,184.23982,188.30843,3.3520274,15.43175,22.75469
587.694,0.01956235,0.004279351,806.4232,790.6477,199.57024,21.767899,187.54698,191.43744,3.450968,15.775536,22.103613
596.84705,0.019676404,0.004338372,819.17975,803.0613,202.73021,21.10726,190.89532,194.66824,3.5539062,16.118511,21.43534
606.1131,0.01978392,0.0043999683,832.0586,815.59717,205.89542,20.429018,194.30022,198.0045,3.6610312,16.46138,20.74964
615.46515,0.019885695,0.004470565,845.06085,828.25616,209.08829,19.706543,197.74414,201.62553,3.7778995,16.80462,20.019873
624.8937,0.019982291,0.0045494707,858.1828,841.03436,212.3144,18.943094,201.21887,205.51445,3.9042776,17.148458,19.249302
634.41876,0.020074056,0.0046300325,871.4261,853.933,215.56049,18.166922,204.74226,209.4878,4.034731,17.493055,18.466167
644.03485,0.02016117,0.004712026,884.7889,866.9505,218.83055,17.379093,208.30382,213.54053,4.169148,17.838379,17.671534
653.71356,0.020243755,0.004794713,898.2728,880.0884,222.15506,16.58308,211.88661,217.65234,4.3069606,18.184414,16.868872
663.4884,0.020321889,0.0048768767,911.88684,893.3556,225.51035,15.78409,215.51385,221.79062,4.44716,18.531263,16.063383
673.3595,0.020395625,0.0049559968,925.62616,906.7475,228.89417,14.992499,219.18802,225.88527,4.5874004,18.878725,15.265442
683.3239,0.020465009,0.005032235,939.49054,920.2639,232.30896,14.207812,222.90707,229.9404,4.727737,19.226683,14.474548
693.36127,0.0205301,0.0051070414,953.4801,933.90515,235.77429,13.424063,226.65643,233.99754,4.8694625,19.575043,13.684733
703.49646,0.020590974,0.005178681,967.59674,947.673,239.26884,12.648571,230.45377,238.0074,5.0108747,19.92376,12.903316
713.7284,0.020647682,0.0052468963,981.8398,961.567,242.79337,11.882287,234.2989,241.96323,5.1516113,20.272717,12.131239
724.04834,0.020700295,0.0053122356,996.20935,975.58746,246.35655,11.12325,238.19604,245.87955,5.2920985,20.621826,11.366541
734.4393,0.02074888,0.005376185,1010.70325,989.7323,249.97209,10.365441,242.12314,249.79901,5.4337277,20.97096,10.603201
744.9258,0.020793505,0.005436746,1025.3224,1004.00244,253.61809,9.617154,246.09683,253.66418,5.5744176,21.320047,9.849508
755.50946,0.02083423,0.005493821,1040.0673,1018.3984,257.29398,8.878934,250.11832,257.4715,5.7139435,21.669003,9.106004
766.19073,0.020871114,0.005547352,1054.9376,1032.9198,260.9992,8.151103,254.18773,261.21884,5.8521104,22.017723,8.37301
776.97614,0.020904215,0.00559751,1069.933,1047.5668,264.72684,7.4331937,258.31384,264.90997,5.9889603,22.366106,7.650055
787.8587,0.02093361,0.0056441408,1085.0521,1062.3381,268.4834,6.7259603,262.48795,268.5397,6.124187,22.714058,6.93789
798.82196,0.020959362,0.005687571,1100.2953,1077.2338,272.28485,6.028371,266.7081,272.116,6.2580075,23.061487,6.2354827
809.88226,0.020981537,0.0057270178,1115.6707,1092.2622,276.12454,5.343686,270.9791,275.61542,6.3894653,23.408484,5.546088
821.0468,0.0210002,0.005762276,1131.179,1107.4241,279.99582,4.6731043,275.30255,279.02936,6.518165,23.754986,4.870904
832.31525,0.021015428,0.005793403,1146.8198,1122.719,283.89948,4.016517,279.67856,282.3584,6.64399,24.100912,4.2098193
843.6787,0.021027297,0.0058206078,1162.5925,1138.1462,287.8428,3.3733697,284.10455,285.60648,6.766995,24.446178,3.562277
855.1444,0.02103588,0.0058438964,1178.4955,1153.7047,291.8183,2.7438889,288.58228,288.7719,6.887005,24.790688,2.928501
866.7036,0.021041265,0.0058629056,1194.5283,1169.3939,295.83423,2.1297789,293.10345,291.84177,7.003407,25.134388,2.3101933
878.3613,0.02104352,0.0058785593,1210.6846,1185.2075,299.87878,1.527533,297.67368,294.842,7.117081,25.477066,1.7038451
890.1522,0.021042734,0.0058865715,1226.9636,1201.145,303.9222,0.9551614,302.30804,297.6371,7.222609,25.81867,1.1274645
902.0451,0.021038983,0.0058895703,1243.3636,1217.2046,307.9905,0.40228388,306.99365,300.30414,7.322878,26.159107,0.5706693
914.15125,0.021032382,0.0058488576,1259.8873,1233.3889,312.02374,0.030592242,311.83466,301.61322,7.3689013,26.498432,0.19514905
926.3917,0.021023044,0.0057279174,1276.5369,1249.7002,316.15027,0.0,316.84705,300.34027,7.3118978,26.836693,0.16081521
938.69745,0.02101145,0.005602369,1293.3037,1266.1295,320.33875,0.0,321.89902,298.8423,7.245565,27.174189,0.15715867
951.07263,0.020998683,0.0054794713,1310.1938,1282.6815,324.5804,0.0,326.99265,297.35178,7.17917,27.512346,0.15358528
963.54736,0.020985564,0.0053591738,1327.2136,1299.3613,328.85046,0.0,332.1401,295.86874,7.1127687,27.852325,0.15009306
976.12274,0.020972628,0.0052414304,1344.3625,1316.1677,333.1464,0.0,337.34094,294.39304,7.046383,28.194817,0.14668027
988.79767,0.020960212,0.005126192,1361.64,1333.0999,337.4684,0.0,342.59448,292.92477,6.980028,28.540264,0.14334513
1001.57227,0.02094853,0.0050133946,1379.0468,1350.1578,341.81668,0.0,347.9004,291.46375,6.913706,28.889,0.14008576
1014.43085,0.020937681,0.004902991,1396.5822,1367.341,346.20593,0.0,353.26062,290.01004,6.84743,29.241192,0.13690053
1027.3777,0.020927709,0.004794941,1414.2393,1384.6425,350.6255,0.0,358.67535,288.56363,6.7811937,29.596786,0.13378775
1040.4142,0.020918604,0.004689195,1432.0116,1402.0559,355.06723,0.0,364.13742,287.12442,6.714982,29.955683,0.13074575
1053.5409,0.020910343,0.0045856903,1449.9004,1419.5824,359.53177,0.0,369.64984,285.69238,6.648794,30.317915,0.12777293
1066.7472,0.020902878,0.0044844057,1467.9093,1437.226,364.03354,0.0,375.21176,284.26752,6.582701,30.683529,0.1248677
1080.0358,0.020896139,0.0043852776,1486.0474,1454.9948,368.57834,0.0,380.82025,282.8497,6.51673,31.05265,0.122028455
1093.4122,0.020890072,0.0042882636,1504.3124,1472.8871,373.15878,0.0,386.4842,281.43893,6.4508877,31.425194,0.11925388
1106.884,0.020884609,0.0041933195,1522.7052,1490.9042,377.76834,0.0,392.1996,280.0353,6.3851895,31.801102,0.1165423
1120.449,0.020879695,0.0041004186,1541.2229,1509.0426,382.4059,0.0,397.96564,278.6386,6.319659,32.180267,0.11389247
1134.1077,0.020875266,0.0040094946,1559.866,1527.3033,387.07208,0.0,403.78247,277.2489,6.254274,32.562614,0.11130284
1147.8555,0.02087127,0.0039205244,1578.6335,1545.6854,391.77014,0.0,409.6497,275.86612,6.189071,32.948086,0.108772084
1161.6953,0.020867659,0.0038334571,1597.5265,1564.1898,396.49823,0.0,415.56766,274.4902,6.1240497,33.33664,0.1062988
1175.6276,0.020864386,0.0037482565,1616.5435,1582.8153,401.25485,0.0,421.5362,273.12112,6.0592194,33.728184,0.10388178
1189.6511,0.020861415,0.0036648896,1635.6829,1601.5603,406.0397,0.0,427.55527,271.7589,5.9945974,34.12266,0.10151975
1203.7385,0.020858703,0.0035833125,1654.9457,1620.4258,410.8807,0.0,433.62604,270.40353,5.9301877,34.52002,0.09921143
1217.9042,0.020856222,0.0035034928,1674.3293,1639.409,415.76123,0.0,439.7454,269.05487,5.866001,34.920185,0.09695557
1232.1595,0.020853944,0.003425389,1693.8337,1658.5106,420.67023,0.0,445.9143,267.71292,5.8020396,35.323112,0.09475104
1246.5043,0.020851845,0.003348967,1713.4586,1677.7299,425.60696,0.0,452.13315,266.3777,5.738316,35.728775,0.092596605
1260.9375,0.0208499,0.0032741965,1733.2025,1697.0654,430.5713,0.0,458.4012,265.04916,5.674845,36.1371,0.0904912
1275.46,0.020848095,0.0032010295,1753.0665,1716.5184,435.5638,0.0,464.71906,263.7271,5.611617,36.548096,0.08843359
1290.0703,0.020846412,0.003129455,1773.0487,1736.0869,440.5835,0.0,471.08612,262.41183,5.548676,36.961704,0.086422846
1304.7694,0.020844836,0.0030594177,1793.1501,1755.7723,445.6313,0.0,477.50272,261.103,5.485996,37.377922,0.08445772
1319.5535,0.02084336,0.0029908943,1813.369,1775.5723,450.7081,0.0,483.9703,259.80072,5.4235945,37.796703,0.08253733
1334.4238,0.020841967,0.0029238581,1833.7067,1795.4886,455.8151,0.0,490.48932,258.5049,5.3614984,38.218056,0.0806606
1349.3698,0.02084065,0.0028582783,1854.1635,1815.5216,460.96252,0.0,497.06818,257.21564,5.2997155,38.64197,0.07882659
1364.4011,0.020839399,0.0027941125,1874.7385,1835.6702,466.13992,0.0,503.69852,255.93274,5.2382307,39.068424,0.07703425
1379.5209,0.020838208,0.0027313381,1895.4329,1855.9354,471.34528,0.0,510.37872,254.65625,5.177068,39.497425,0.07528265
1394.7268,0.020837076,0.002669936,1916.2434,1876.3147,476.57816,0.0,517.1085,253.38615,5.1162477,39.928913,0.073570944
1410.0186,0.020835996,0.0026098613,1937.1707,1896.8077,481.83868,0.0,523.8874,252.12239,5.0557466,40.362877,0.07189812
1425.3975,0.020834958,0.0025510928,1958.2146,1917.4154,487.1265,0.0,530.7158,250.8649,4.9955873,40.799324,0.070263304
1440.8607,0.020833964,0.0024936064,1979.3733,1938.1349,492.441,0.0,537.59314,249.61372,4.9357777,41.23819,0.06866568
1456.4098,0.020833006,0.0024373673,2000.6472,1958.9678,497.78336,0.0,544.51935,248.36877,4.8763123,41.679497,0.067104384
1472.0435,0.020832084,0.0023823571,2022.0355,1979.9122,503.15213,0.0,551.49457,247.12999,4.8172107,42.12321,0.065578565
1487.7611,0.020831198,0.0023285467,2043.5371,2000.9678,508.5472,0.0,558.5181,245.89742,4.758472,42.569324,0.0640875
1503.563,0.020830344,0.0022759147,2065.1516,2022.1342,513.9688,0.0,565.5901,244.671,4.700109,43.017822,0.06263029
1519.4465,0.020829525,0.0022244274,2086.878,2043.4093,519.4172,0.0,572.7103,243.45068,4.6421084,43.468674,0.061206225
1535.4121,0.020828733,0.00217407,2108.715,2064.7932,524.8921,0.0,579.8789,242.2365,4.5844946,43.921867,0.05981458
