con,Omega,ygross,ynet,inv,Eind,scc,Dam,Emissions
77.41304,0.0028556,105.17594,104.8756,27.462566,36.845238,11.220533,0.3003404,39.445236
79.685455,0.002278755,108.67953,108.43187,28.746412,37.49797,11.4858465,0.24765399,40.038857
82.122734,0.002125019,112.34053,112.10181,29.979074,38.17555,11.791385,0.23872578,40.65866
84.73312,0.0021188452,116.14342,115.89733,31.16421,38.870953,12.128576,0.24608992,41.297604
87.49487,0.0021688465,120.07293,119.812515,32.317635,39.577755,12.484619,0.26041976,41.94923
90.388725,0.0022415516,124.118195,123.839966,33.451244,40.29116,12.855235,0.27821735,42.60871
93.4017,0.0023241704,128.27159,127.973465,34.571762,41.007843,13.233693,0.29812503,43.2727
96.51338,0.0024117548,132.5262,132.20657,35.69319,41.72477,13.62045,0.3196207,43.93813
99.7138,0.0025023997,136.87593,136.53342,36.819614,42.439274,14.011588,0.3425183,44.602306
102.9969,0.0025953902,141.31778,140.951,37.954117,43.149845,14.404056,0.3667748,45.263695
106.37598,0.002690473,145.84727,145.45488,39.078896,43.854767,14.810027,0.39239818,45.920555
109.81333,0.0027875702,150.46452,150.0451,40.23176,44.553394,15.222914,0.41943043,46.572212
113.31144,0.002886671,155.16956,154.72163,41.410194,45.24547,15.640995,0.44792348,47.218388
116.876595,0.0029877855,159.96193,159.484,42.607403,45.930458,16.065697,0.47793192,47.858513
120.5313,0.0030909285,164.83992,164.33041,43.79911,46.60751,16.505804,0.50950843,48.491722
124.25376,0.0031961175,169.80336,169.26065,45.006878,47.276043,16.947868,0.54271144,49.117416
128.04445,0.0033033644,174.85187,174.27426,46.229805,47.935913,17.398443,0.5775994,49.735424
131.89453,0.0034126781,179.9842,179.36998,47.475433,48.58623,17.858622,0.6142282,50.34482
135.8134,0.003524066,185.20132,184.54866,48.735252,49.227238,18.322775,0.65266174,50.94584
139.80394,0.0036375285,190.50215,189.80919,50.005226,49.85812,18.792784,0.69295704,51.53765
143.8561,0.0037530656,195.8863,195.15114,51.295025,50.47873,19.274431,0.7351742,52.120068
147.97116,0.003870674,201.35472,200.57535,52.60418,51.0891,19.760391,0.7793785,52.69312
152.1669,0.0039903475,206.9062,206.08058,53.91368,51.688618,20.252258,0.8256277,53.25617
156.42393,0.004112075,212.53989,211.66592,55.241985,52.276985,20.749245,0.87398005,53.808887
160.75151,0.0042358483,218.25827,217.33377,56.582245,52.85445,21.260378,0.9245089,54.351524
165.12993,0.0043616514,224.06105,223.08377,57.95384,53.42106,21.778532,0.9772761,54.884094
169.56421,0.0044894735,229.94714,228.91481,59.350616,53.976116,22.307835,1.0323417,55.40588
174.06775,0.004619296,235.92015,234.83035,60.7626,54.520584,22.84516,1.0897851,55.917843
178.62537,0.004751102,241.98088,240.83119,62.20583,55.05421,23.390097,1.1496757,56.419693
183.25227,0.004884875,248.12907,246.91699,63.664726,55.576973,23.941597,1.2120795,56.911415
187.95372,0.005020595,254.36543,253.08835,65.134636,56.08878,24.499441,1.2770659,57.392876
192.71413,0.005158243,260.6897,259.34497,66.63087,56.589527,25.06564,1.3447007,57.863976
197.53429,0.005297799,267.1048,265.68973,68.15543,57.07963,25.640064,1.4150674,58.3251
202.42639,0.005439241,273.61365,272.12543,69.69904,57.55956,26.22336,1.4882507,58.776707
207.38719,0.005582549,280.21368,278.64935,71.26217,58.028706,26.81465,1.5643066,59.21818
212.42566,0.005727703,286.90546,285.26215,72.83648,58.48697,27.412062,1.6433094,59.6494
217.52992,0.0058746794,293.68918,291.96387,74.43393,58.934288,28.017546,1.7253298,60.070282
222.69766,0.0060234545,300.5659,298.75543,76.05778,59.37084,28.628355,1.8104452,60.481007
227.93831,0.0061740046,307.53497,305.63623,77.69793,59.796288,29.248173,1.8987223,60.881214
233.25922,0.0063263024,314.59622,312.606,79.34677,60.210537,29.876307,1.9902309,61.27079
238.64296,0.006480326,321.75122,319.6662,81.023224,60.613785,30.510767,2.0850527,61.64993
244.09749,0.0066360496,329.00235,326.81906,82.72157,61.00648,31.154127,2.183276,62.01907
249.6242,0.0067934436,336.3486,334.06366,84.43942,61.388268,31.806568,2.2849653,62.37784
255.20949,0.006952481,343.7899,341.3997,86.19021,61.759144,32.46537,2.3901925,62.72621
260.8632,0.007113137,351.32666,348.82764,87.96445,62.118927,33.132362,2.4990346,63.064003
266.58826,0.0072753825,358.9595,356.34796,89.75967,62.46785,33.805546,2.6115677,63.39144
272.39587,0.0074391956,366.6906,363.96274,91.56683,62.80614,34.48482,2.7278833,63.708725
278.29227,0.0076045403,374.51965,371.67163,93.379364,63.133675,35.172302,2.8480499,64.01574
284.27332,0.007771392,382.44363,379.47153,95.19823,63.45001,35.869297,2.9721196,64.31202
290.32892,0.007939722,390.46295,387.36282,97.03388,63.754967,36.572075,3.1001675,64.597374
296.415,0.008109501,398.57837,395.34607,98.93106,64.04888,37.28489,3.2322714,64.87214
302.57062,0.008280701,406.79135,403.42282,100.852196,64.33187,38.006153,3.3685176,65.136406
308.80716,0.00845329,415.10522,411.59622,102.78905,64.604515,38.738434,3.509005,65.39076
315.10947,0.008627237,423.5189,419.86508,104.755615,64.8664,39.47691,3.6537974,65.634766
321.49545,0.008802512,432.03522,428.23224,106.73676,65.118195,40.22779,3.8029952,65.869095
327.9639,0.00897909,440.65277,436.6961,108.732216,65.359375,40.98532,3.9566607,66.0932
334.51804,0.0091569405,449.37094,445.2561,110.73806,65.5901,41.74928,4.114863,66.30725
341.12668,0.009336035,458.18982,453.91214,112.78548,65.81026,42.520546,4.277676,66.511086
347.81958,0.009516344,467.11188,462.6667,114.847115,66.020195,43.299973,4.4451976,66.70509
354.57568,0.00969784,476.13818,471.5207,116.94498,66.22018,44.08509,4.6175117,66.889496
361.40408,0.0098804915,485.2721,480.4774,119.0733,66.41042,44.881992,4.7947264,67.06453
368.32755,0.0100642685,494.50864,489.5318,121.20423,66.59035,45.682613,4.9768677,67.229576
375.33197,0.010249149,503.8477,498.6837,123.35171,66.76009,46.49396,5.16401,67.38479
382.41656,0.010435102,513.2927,507.9365,125.51995,66.91999,47.317646,5.356262,67.53048
389.58978,0.010622095,522.8402,517.28656,127.69678,67.06948,48.147984,5.5536585,67.66609
396.84152,0.0108101,532.48944,526.7332,129.89165,67.20877,48.986225,5.7562637,67.79181
404.15164,0.01099909,542.24133,536.2772,132.12555,67.33787,49.833115,5.9641614,67.90766
411.5186,0.011189036,552.1006,545.92316,134.40459,67.45743,50.68611,6.1774735,68.01427
418.9774,0.01137991,562.0688,555.6725,136.69513,67.56763,51.54974,6.3962917,68.1118
426.53278,0.011571677,572.1445,565.5238,138.99101,67.668335,52.420006,6.6206713,68.200134
434.1609,0.011764314,582.32605,575.4754,141.3145,67.7594,53.297337,6.850667,68.279106
441.86862,0.011957794,592.61304,585.52673,143.65805,67.84079,54.182602,7.0863457,68.34868
449.62778,0.012152089,603.0055,595.6778,146.04997,67.9126,55.074814,7.3277764,68.408936
457.47763,0.012347167,613.50684,605.93176,148.45415,67.975235,55.97278,7.5750713,68.46029
465.40964,0.01254301,624.1224,616.294,150.88437,68.029205,56.875664,7.828373,68.503235
473.41425,0.012739579,634.84735,626.75964,153.34543,68.07428,57.791027,8.087688,68.53753
481.5064,0.012936855,645.683,637.3299,155.82352,68.110504,58.719765,8.353107,68.56322
489.68454,0.01313481,656.6281,648.00336,158.31885,68.1378,59.65362,8.624685,68.580215
497.94705,0.013333419,667.6803,658.77783,160.8308,68.15599,60.595615,8.902461,68.58835
506.29504,0.013532653,678.8401,669.6536,163.35857,68.16519,61.545895,9.186508,68.587715
514.701,0.013732486,690.1089,680.632,165.93098,68.16551,62.50315,9.476912,68.57843
523.1784,0.013932894,701.48944,691.71564,168.53719,68.15751,63.473995,9.773778,68.56104
531.71027,0.014133848,712.97955,702.9024,171.19217,68.14083,64.45242,10.077146,68.53519
540.3267,0.014335328,724.58734,714.2002,173.87344,68.116516,65.43813,10.387197,68.50191
549.05035,0.014537302,736.31036,725.6065,176.55614,68.08417,66.43589,10.703966,68.4608
557.8561,0.014739745,748.14844,737.12085,179.26482,68.04394,67.44194,11.027517,68.412
566.7642,0.014942635,760.098,748.7401,181.97592,67.99556,68.46258,11.357866,68.355255
575.78284,0.015130974,772.15985,760.4763,184.69353,67.9392,69.48649,11.683532,68.290726
584.89185,0.01531363,784.3307,772.31976,187.42789,67.87465,70.51446,12.01095,68.21818
594.0729,0.015494047,796.60516,784.26245,190.1896,67.80143,71.553444,12.342637,68.137146
603.3407,0.015673552,808.98724,796.3075,192.9668,67.72022,72.601,12.679703,68.0483
612.6957,0.015852647,821.48157,808.4589,195.76318,67.631294,73.65336,13.022656,67.95192
622.13403,0.016031517,834.08704,820.7154,198.58134,67.534744,74.712814,13.371681,67.848076
631.64624,0.016210224,846.8058,833.0789,201.43266,67.430855,75.77411,13.726912,67.73706
641.2219,0.016388772,859.63666,845.5483,204.32642,67.31962,76.83766,14.088389,67.618866
650.8358,0.016567156,872.5796,858.1234,207.2876,67.20099,77.90892,14.456161,67.49343
660.5181,0.016745353,885.6376,870.80725,210.28915,67.075584,78.98992,14.830314,67.361374
670.30444,0.016923347,898.81775,883.6068,213.30232,66.943726,80.08027,15.211004,67.22302
680.1795,0.017101126,912.11914,896.5208,216.34135,66.80542,81.184364,15.598263,67.07836
690.145,0.017278668,925.54047,909.54834,219.40329,66.660904,82.29477,15.992106,66.927635
700.23065,0.017455949,939.0791,922.6866,222.45595,66.50982,83.416626,16.392517,66.7705
710.40955,0.017632958,952.7295,935.93005,225.52048,66.352104,84.54668,16.799438,66.60685
720.6603,0.01780968,966.492,949.2792,228.6189,66.18754,85.69117,17.212912,66.436485
730.98395,0.017986087,980.3655,962.7326,231.74863,66.0165,86.84898,17.63294,66.259796
741.4242,0.018162169,994.359,976.29926,234.87505,65.83946,88.0169,18.059715,66.07722
751.93427,0.0183379,1008.47125,989.97797,238.04375,65.65657,89.19225,18.493244,65.88892
762.49054,0.018513266,1022.7001,1003.7666,241.27608,65.46775,90.3732,18.93352,65.694824
773.15344,0.01868825,1037.042,1017.66144,244.50801,65.272766,91.56546,19.380499,65.49467
783.86444,0.018862838,1051.4999,1031.6655,247.80104,65.07204,92.7733,19.83427,65.288895
794.68744,0.019037006,1066.072,1045.7772,251.08975,64.865456,93.99326,20.29482,65.07738
805.61786,0.019210745,1080.759,1059.9968,254.37898,64.65336,95.22194,20.762186,64.86047
816.63654,0.019384028,1095.5569,1074.3206,257.68405,64.43531,96.45585,21.236305,64.63771
827.74835,0.019556854,1110.4667,1088.7495,261.0012,64.21181,97.70171,21.717236,64.40961
838.9402,0.019729197,1125.488,1103.2831,264.34296,63.982716,98.95412,22.204975,64.17602
850.18024,0.019901045,1140.619,1117.9194,267.73926,63.748177,100.21922,22.699509,63.937088
861.5077,0.020072376,1155.8645,1132.6636,271.15598,63.5086,101.49532,23.200949,63.69321
872.9266,0.02024318,1171.2274,1147.5181,274.59152,63.264084,102.7828,23.709366,63.4445
884.41516,0.020413436,1186.7067,1162.4819,278.06674,63.01472,104.08596,24.22476,63.191032
895.99335,0.020583138,1202.2981,1177.551,281.55768,62.760487,105.39842,24.747068,62.932793
907.66016,0.020752266,1218.0015,1192.7251,285.0651,62.50149,106.72034,25.276293,62.669872
919.37726,0.020920807,1233.8179,1208.0054,288.62808,62.237797,108.05031,25.812468,62.402363
931.2841,0.02108875,1249.7524,1223.3969,292.11276,61.969864,109.389366,26.355717,62.13068
943.2328,0.02125608,1265.797,1238.8911,295.6584,61.69743,110.73538,26.905884,61.854588
955.2071,0.021422787,1281.9501,1254.487,299.27997,61.420383,112.09228,27.462942,61.57397
967.2626,0.021588856,1298.2136,1270.1866,302.92404,61.138992,113.46018,28.026947,61.28909
979.3787,0.021754272,1314.5994,1286.0012,306.6225,60.853985,114.8325,28.598154,61.00067
991.57654,0.021919023,1331.1085,1301.9319,310.35535,60.56553,116.211685,29.176598,60.708874
1003.88306,0.022083104,1347.732,1317.97,314.08694,60.2732,117.61147,29.762106,60.413284
1016.3241,0.022246499,1364.4678,1334.1133,317.78912,59.976986,119.02847,30.354631,60.113888
1028.8661,0.022409197,1381.3134,1350.3594,321.49326,59.677025,120.45561,30.954124,59.810818
1041.5106,0.022571187,1398.2675,1366.7069,325.1962,59.37338,121.90209,31.560556,59.50412
1054.1758,0.022732457,1415.3306,1383.1566,328.98074,59.065952,123.35028,32.17394,59.19373
1066.8777,0.022892997,1432.5062,1399.7118,332.83414,58.75536,124.800934,32.79436,58.88023
1079.6761,0.023052797,1449.7994,1416.3776,336.70132,58.44167,126.26739,33.421936,58.563698
1092.5447,0.023211852,1467.205,1433.1484,340.6036,58.124786,127.74319,34.05654,58.24404
1105.5126,0.02337015,1484.7247,1450.0265,344.51392,57.80487,129.2296,34.69824,57.92141
1118.5773,0.023527674,1502.356,1467.009,348.43182,57.482155,130.72635,35.34694,57.596046
1131.7229,0.023684423,1520.0996,1484.0969,352.37402,57.156445,132.23184,36.00268,57.26775
1144.9136,0.023840377,1537.9546,1501.2893,356.3757,56.828033,133.74846,36.66542,56.936802
1158.1913,0.023995543,1555.9314,1518.5961,360.40475,56.497284,135.26335,37.33542,56.60358
1171.5913,0.0241499,1574.0286,1536.0157,364.42456,56.16425,136.78941,38.01263,56.26813
1185.1084,0.024303446,1592.2429,1553.546,368.43756,55.828983,138.32639,38.696987,55.930504
1198.674,0.024456177,1610.5747,1571.1862,372.51215,55.491505,139.87494,39.3885,55.590717
1212.276,0.024608077,1629.0135,1588.9266,376.6506,55.15164,141.4321,40.08689,55.248596
1225.9509,0.024759145,1647.5546,1606.7625,380.81146,54.809235,142.99863,40.792046,54.903984
1239.7373,0.024909373,1666.199,1624.695,384.95782,54.464466,144.57565,41.50397,54.557064
1253.6234,0.02505876,1684.9479,1642.7252,389.1019,54.117554,146.16417,42.222706,54.208042
1267.5962,0.025207287,1703.8029,1660.8546,393.25842,53.768456,147.76283,42.94825,53.856888
1281.6561,0.025354944,1722.7626,1679.082,397.4259,53.417557,149.37166,43.680546,53.503983
1295.8044,0.025501732,1741.8285,1697.4089,401.60443,53.064693,150.99065,44.419643,53.14915
1310.0413,0.025647646,1760.9989,1715.8336,405.79227,52.71001,152.61983,45.165478,52.792545
1324.3683,0.025792677,1780.2745,1734.3567,409.98834,52.35375,154.25922,45.918045,52.43441
1338.716,0.025936818,1799.6547,1752.9774,414.26154,51.995968,155.9055,46.677315,52.074795
1353.1003,0.026080055,1819.142,1771.6984,418.5982,51.636635,157.55646,47.443317,51.713673
1367.5616,0.026222397,1838.7404,1790.5239,422.96237,51.27609,159.21695,48.216183,51.35137
1382.1013,0.02636383,1858.4437,1809.448,427.3468,50.914406,160.88632,48.99569,50.987976
1396.7345,0.026504353,1878.2528,1828.471,431.7365,50.551422,162.56575,49.781876,50.623318
1411.4607,0.026643956,1898.1676,1847.593,436.1324,50.18734,164.25513,50.574696,50.257607
1426.2498,0.02678264,1918.19,1866.8157,440.56595,49.822376,165.96004,51.374187,49.89104
1441.1522,0.026920399,1938.3229,1886.1426,444.99033,49.456505,167.67625,52.180428,49.52361
1456.0781,0.027057225,1958.5627,1905.5693,449.49115,49.08991,169.39603,52.99327,49.155483
1471.0427,0.027193122,1978.9081,1925.0955,454.05252,48.722546,171.12225,53.812687,48.786633
1486.1854,0.027328087,1999.3572,1944.7188,458.5333,48.354538,172.89325,54.638607,48.417168
1501.4191,0.027462108,2019.9036,1964.4327,463.0136,47.98563,174.67401,55.470814,48.04684
1516.6704,0.027595185,2040.5513,1984.2421,467.57156,47.61621,176.45897,56.30939,47.67603
1532.0211,0.027727317,2061.304,2004.1494,472.1283,47.246258,178.25508,57.154423,47.30471
1547.4648,0.027858492,2082.1577,2024.152,476.6871,46.87595,180.06242,58.00577,46.93308
1562.9779,0.027988713,2103.1125,2044.2491,481.27127,46.50524,181.88054,58.86342,46.561066
1578.572,0.028117983,2124.164,2064.4368,485.8648,46.13417,183.70926,59.727207,46.188725
1594.2524,0.028246295,2145.311,2084.7139,490.46146,45.762764,185.54868,60.597088,45.81608
1609.9551,0.028373646,2166.5537,2105.0806,495.1255,45.391136,187.40132,61.473026,45.443237
1625.685,0.02850003,2187.893,2125.5383,499.85333,45.019356,189.26625,62.355022,45.070274
1641.5033,0.028625451,2209.3376,2146.0945,504.5913,44.64769,191.1456,63.243286,44.697453
1657.4028,0.028749894,2230.878,2166.7405,509.3376,44.276016,193.03601,64.137505,44.32465
1673.413,0.028873375,2252.5205,2187.4827,514.06976,43.904537,194.93802,65.03787,43.952065
1689.4958,0.028995879,2274.2625,2208.3184,518.8223,43.53336,196.84865,65.944244,43.579807
1705.6431,0.02911742,2296.1013,2229.2446,523.60175,43.16233,198.76779,66.856544,43.20772
1721.8727,0.029237982,2318.0312,2250.2566,528.38385,42.791576,200.69785,67.77455,42.835926
1738.1824,0.02935757,2340.0505,2271.3525,533.17004,42.420986,202.63855,68.6982,42.464333
1754.509,0.029476183,2362.1626,2292.5352,538.02606,42.050762,204.58792,69.62754,42.09312
1770.8882,0.029593816,2384.3723,2313.8096,542.9215,41.681156,206.54883,70.562675,41.722553
1787.3337,0.029710472,2406.672,2335.1685,547.8349,41.311924,208.51595,71.503365,41.35238
1803.8494,0.029826151,2429.0686,2356.6187,552.7692,40.943424,210.50287,72.44977,40.98296
1820.4668,0.02994085,2451.5596,2378.1577,557.691,40.57551,212.50117,73.40177,40.614147
1837.1559,0.030054566,2474.145,2399.7856,562.62976,40.208324,214.50455,74.35935,40.246086
1853.9456,0.03016731,2496.8215,2421.499,567.55365,39.841866,216.51266,75.322395,39.87877
1870.8173,0.03027907,2519.5854,2443.2947,572.4776,39.47614,218.53471,76.2907,39.5122
1887.7555,0.03038986,2542.4365,2465.172,577.4168,39.11122,220.56824,77.26429,39.14646
1904.7728,0.030499663,2565.3716,2487.129,582.356,38.74711,222.61244,78.24297,38.781548
1921.8116,0.030608488,2588.3916,2509.165,587.3534,38.383812,224.66956,79.22675,38.417473
1938.9072,0.030716343,2611.4883,2531.273,592.3657,38.02141,226.73692,80.21537,38.054302
1956.0621,0.030823216,2634.6611,2553.4524,597.39026,37.65983,228.8145,81.208725,37.691975
1973.3625,0.030929111,2657.9116,2575.7048,602.3423,37.29927,230.91176,82.20685,37.33069
1990.7399,0.031034032,2681.239,2598.0295,607.2896,36.939663,233.02069,83.20966,36.970364
2007.9241,0.03113798,2704.643,2620.4258,612.5017,36.581127,235.11743,84.21712,36.611126
2025.1285,0.03124095,2728.1455,2642.9158,617.7873,36.224007,237.21703,85.22986,36.253323
2042.4672,0.031342946,2751.745,2665.4973,623.0302,35.86833,239.32828,86.2478,35.896984
2059.9282,0.03144397,2775.4417,2688.171,628.24255,35.514065,241.4516,87.27089,35.54207
2077.4136,0.03154403,2799.2275,2710.9287,633.5149,35.16122,243.58144,88.29892,35.188587
2095.0117,0.03164312,2823.1023,2733.7705,638.75867,34.809837,245.72264,89.33176,34.836582
2112.6904,0.03174123,2847.0642,2756.6948,644.00433,34.459927,247.87689,90.36933,34.48606
2130.4312,0.03183839,2871.1094,2779.6978,649.26654,34.111416,250.04453,91.41151,34.136955
2148.2537,0.031934593,2895.2317,2802.7737,654.5201,33.76437,252.22281,92.45805,33.78933
2166.1548,0.03202983,2919.4307,2825.9219,659.7671,33.418797,254.41151,93.50887,33.443188
2184.134,0.03212412,2943.7063,2849.1423,665.0083,33.07475,256.61075,94.56397,33.09859
2202.1638,0.03221745,2968.0542,2872.4312,670.267,32.732216,258.81802,95.62313,32.755512
2220.2458,0.03230983,2992.4753,2895.789,675.5431,32.39121,261.03342,96.68637,32.41397
2238.4062,0.032401264,3016.9707,2919.2168,680.81067,32.051807,263.259,97.753654,32.07406
2256.641,0.03249175,3041.5378,2942.7131,686.072,31.714062,265.4951,98.82489,31.735804
2274.7798,0.032581296,3066.1787,2966.2786,691.4987,31.377958,267.73254,99.90008,31.399204
2292.984,0.03266989,3090.893,2989.9136,696.9299,31.043518,269.97943,100.97913,31.064281
2311.3354,0.032757554,3115.6755,3013.6138,702.27826,30.7108,272.25156,102.06191,30.731092
2329.6636,0.03284428,3140.5205,3037.372,707.70874,30.37978,274.5378,103.14814,30.39961
2348.0488,0.032930076,3165.4392,3061.2012,713.15204,30.050602,276.83652,104.238144,30.06998
2366.5232,0.03301493,3190.4321,3085.1,718.5769,29.723244,279.14594,105.3319,29.742184
2385.1296,0.033098873,3215.4973,3109.0679,723.93823,29.397842,281.4658,106.429344,29.416351
2403.8218,0.033181883,3240.6294,3133.0994,729.27747,29.074242,283.79572,107.53019,29.092329
2422.5435,0.033263978,3265.8274,3157.1934,734.64984,28.752487,286.12933,108.63441,28.770164
2441.2942,0.033345148,3291.0903,3181.3484,740.05426,28.432646,288.467,109.74189,28.44992
2459.9377,0.03342541,3316.4126,3205.5603,745.62225,28.114641,290.80472,110.85244,28.131525
2478.656,0.033504765,3341.808,3229.8416,751.18536,27.798687,293.15103,111.9665,27.815186
2497.4644,0.03358321,3367.276,3254.192,756.7276,27.484734,295.50803,113.08393,27.500856
2516.3542,0.033660755,3392.81,3278.6055,762.25104,27.17281,297.87497,114.20455,27.188566
