con,Omega,ygross,ynet,inv,Eind,scc,Dam,Emissions
77.50719,0.0028556,105.17594,104.8756,27.368423,36.845238,42.530994,0.3003404,39.445236
79.972664,0.003498102,108.6648,108.284676,28.312016,37.492893,43.683918,0.38012058,40.033775
82.53629,0.004111742,112.26344,111.80184,29.265545,38.149357,44.904633,0.4615983,40.632465
85.19096,0.004693194,115.96927,115.424995,30.23403,38.812668,46.18699,0.5442662,41.23932
87.93,0.0052427556,119.77914,119.15117,31.22116,39.48091,47.526867,0.6279727,41.852386
90.75358,0.005762737,123.69216,122.979355,32.22577,40.152863,48.92677,0.71280533,42.470413
93.65987,0.006256453,127.705574,126.906586,33.246716,40.82689,50.385254,0.7989839,43.091747
96.64398,0.0067276023,131.81761,130.9308,34.28681,41.501675,51.89783,0.8868165,43.71503
99.70848,0.0071799057,136.0277,135.05104,35.342556,42.176273,53.469048,0.97666603,44.33931
102.84416,0.007616895,140.33348,139.26459,36.420418,42.849297,55.086956,1.0689054,44.96315
106.061005,0.0080418065,144.73434,143.57042,37.509407,43.52012,56.761883,1.1639255,45.585907
109.35464,0.008457535,149.22787,147.96579,38.611145,44.187214,58.48906,1.2621,46.20603
112.718185,0.008866632,153.81241,152.44861,39.730427,44.84974,60.267094,1.3637981,46.822655
116.14693,0.009271318,158.48749,157.0181,40.871178,45.5071,62.089832,1.4693879,47.435158
119.6452,0.009673507,163.2525,161.67328,42.02807,46.158672,63.963974,1.5792241,48.04289
123.21336,0.010074832,168.10658,166.41293,43.19957,46.803635,65.89313,1.6936456,48.645008
126.85064,0.010476686,173.05038,171.23738,44.386734,47.44204,67.87177,1.8129945,49.241547
130.55367,0.010880251,178.08157,176.144,45.59034,48.07262,69.897896,1.9375722,49.831207
134.31273,0.01128652,183.20282,181.1351,46.82236,48.696026,71.967926,2.0677223,50.414627
138.14398,0.0116963275,188.4143,186.21054,48.066563,49.31169,74.09528,2.2037554,50.99122
142.03966,0.012110371,193.71356,191.36761,49.327976,49.918827,76.27126,2.3459432,51.56017
145.99915,0.012529233,199.10019,196.60562,50.606476,50.517063,78.4921,2.4945726,52.12108
150.01747,0.012953394,204.57454,201.9246,51.907127,51.10612,80.755394,2.6499345,52.673668
154.09598,0.013383251,210.13878,207.32643,53.230453,51.686398,83.064835,2.81234,53.2183
158.24225,0.013819125,215.79301,212.81096,54.568703,52.257458,85.42679,2.9820707,53.754528
162.45154,0.014261279,221.5357,218.37633,55.924793,52.818966,87.83566,3.1593826,54.281998
166.7197,0.014709929,227.36752,224.02296,57.30327,53.370586,90.288666,3.3445601,54.800354
171.05435,0.015165233,233.28911,229.75125,58.696888,53.91256,92.78804,3.5378835,55.30982
175.45386,0.015627323,239.30183,235.5622,60.108337,54.444695,95.33881,3.7396472,55.81018
179.91295,0.016096296,245.40428,241.45418,61.541237,54.966667,97.93966,3.9501,56.30111
184.4374,0.016572218,251.59706,247.42754,62.99013,55.478336,100.58826,4.1695213,56.782436
189.02788,0.017055133,257.87848,253.48033,64.45245,55.979282,103.29063,4.398152,57.253727
193.67975,0.017545067,264.24863,259.61237,65.932625,56.469276,106.03794,4.6362596,57.714745
198.38718,0.018042026,270.70917,265.82504,67.43784,56.94854,108.82371,4.884142,58.16569
203.15164,0.018546004,277.25912,272.1171,68.96545,57.416855,111.65329,5.142049,58.60633
207.97867,0.01905697,283.90182,278.49152,70.512856,57.87467,114.53352,5.4103084,59.037094
212.86809,0.019574894,290.6343,284.9452,72.07712,58.321266,117.45766,5.6891356,59.457256
217.82133,0.020099731,297.4593,291.48044,73.65911,58.757183,120.43794,5.978852,59.86736
222.82632,0.020631427,304.3812,298.10138,75.27503,59.183075,123.456825,6.279818,60.267998
227.88994,0.021169933,311.39813,304.80582,76.9159,59.598454,126.523796,6.592277,60.658703
233.02118,0.021715175,318.5107,311.59418,78.57299,60.00331,129.64003,6.916516,61.039463
238.22572,0.022267088,325.71814,318.46536,80.23962,60.397495,132.81485,7.2527943,61.410084
243.49527,0.022825604,333.02222,325.42078,81.92549,60.78115,136.04211,7.601433,61.77072
248.82874,0.023390643,340.41824,332.45566,83.62693,61.153454,139.31844,7.9626017,62.12052
254.22243,0.02396213,347.90997,339.57327,85.35086,61.514816,142.64668,8.336664,62.459892
259.6771,0.02453998,355.49545,346.77158,87.094505,61.86502,146.01811,8.72385,62.788612
265.2015,0.0251241,363.17603,354.05154,88.85006,62.20417,149.44067,9.12447,63.106754
270.7719,0.025714397,370.95572,361.4168,90.64492,62.532894,152.90672,9.538902,63.414955
276.4067,0.026310788,378.82828,368.861,92.45431,62.85021,156.42424,9.967271,63.712215
282.10617,0.026913173,386.7964,376.38647,94.28029,63.15629,159.99817,10.409918,63.9987
287.87143,0.027521456,394.86417,383.99695,96.12552,63.452038,163.63197,10.867236,64.27528
293.7037,0.028135533,403.02988,391.69043,97.98672,63.73701,167.31653,11.339461,64.54154
299.60092,0.028755317,411.29422,399.46732,99.86639,64.01139,171.05733,11.826895,64.79763
305.5585,0.029380701,419.6561,407.32632,101.76783,64.27478,174.84573,12.329791,65.043144
311.5701,0.030011587,428.1178,415.26935,103.69922,64.52775,178.68489,12.848495,65.27864
317.631,0.030647865,436.68036,423.29703,105.66601,64.77018,182.56595,13.38332,65.504
323.7652,0.031289443,445.34485,431.4102,107.645004,65.00246,186.50539,13.934591,65.7196
329.97086,0.031936217,454.10974,439.60718,109.63634,65.22423,190.50677,14.502547,65.925064
336.24213,0.032588083,462.97714,447.88962,111.6475,65.435814,194.56178,15.087538,66.120705
342.57806,0.033244938,471.9442,456.25446,113.67636,65.6369,198.66885,15.689756,66.30622
348.97247,0.03390668,481.01227,464.70273,115.73025,65.82746,202.82823,16.309528,66.48157
355.44012,0.034573216,490.18152,473.23434,117.79426,66.00765,207.04764,16.947151,66.64689
361.9625,0.03524443,499.45242,481.84955,119.88703,66.17771,211.31885,17.602917,66.80241
368.53076,0.03592023,508.82535,490.54822,122.01747,66.337555,215.62209,18.277122,66.94804
375.16162,0.0366005,518.3002,499.33008,124.16849,66.48708,219.9788,18.970045,67.083694
381.86627,0.03728515,527.8801,508.19806,126.33182,66.627,224.3973,19.682089,67.21005
388.64514,0.037974063,537.5651,517.1516,128.50645,66.757164,228.87782,20.413532,67.32695
395.47845,0.038667146,547.35547,526.1908,130.71233,66.87764,233.4023,21.16467,67.43448
402.37482,0.0393643,557.2496,535.31384,132.93904,66.9883,237.99017,21.93574,67.53246
409.34177,0.040065426,567.2465,544.51953,135.17775,67.08904,242.63695,22.726973,67.62084
416.38092,0.040770404,577.3481,553.8094,137.42845,67.18016,247.3458,23.538713,67.69987
423.47064,0.041479167,587.55524,563.1839,139.71329,67.261795,252.09996,24.371304,67.76968
430.61667,0.04219159,597.8637,572.6389,142.02225,67.3335,256.90668,25.224823,67.82985
437.83142,0.042907584,608.27545,582.1758,144.34438,67.39561,261.78436,26.099628,67.88065
445.10684,0.043627046,618.79443,591.7982,146.69139,67.44846,266.70776,26.996172,67.92249
452.4264,0.044349875,629.4211,601.50635,149.07996,67.49243,271.67047,27.914747,67.95568
459.79736,0.04507597,640.1569,611.3013,151.5039,67.52759,276.6843,28.855698,67.9803
467.2462,0.045805242,651.0031,621.18384,153.9376,67.5541,281.7649,29.819357,67.99653
474.79102,0.04653759,661.95825,631.1523,156.36131,67.57189,286.9321,30.80594,68.00425
482.396,0.047272924,673.01965,641.2041,158.80812,67.58074,292.15427,31.81561,68.00327
490.06842,0.048011146,684.1913,651.34247,161.27403,67.58099,297.44125,32.84881,67.99392
497.77853,0.048752178,695.4694,661.5637,163.78522,67.5726,302.7483,33.90565,67.976135
505.54428,0.049495902,706.8556,671.86914,166.32484,67.55555,308.1067,34.986458,67.949905
513.38025,0.050242245,718.35254,682.26086,168.88063,67.530396,313.5293,36.091644,67.91579
521.2919,0.05099112,729.9587,692.7373,171.4454,67.49685,319.0181,37.221413,67.873474
529.27594,0.051742423,741.6723,703.2964,174.02039,67.45494,324.5709,38.375923,67.823006
537.3148,0.05249607,753.492,713.93665,176.62187,67.40462,330.17126,39.55537,67.76432
545.41583,0.05323167,765.4207,724.6761,179.26022,67.34626,335.82626,40.74462,67.69777
553.58344,0.05395249,777.45917,735.51324,181.92984,67.28,341.5419,41.945858,67.62353
561.8305,0.054661173,789.6085,746.4476,184.61713,67.20592,347.33755,43.160927,67.54163
570.14655,0.055359926,801.86676,757.4755,187.32896,67.124176,353.19778,44.39129,67.452255
578.5207,0.0560505,814.2351,768.5969,190.07622,67.034706,359.12918,45.638287,67.35532
586.99347,0.05673435,826.72003,779.81665,192.8232,66.93824,365.15527,46.903427,67.25158
595.52405,0.057412613,839.3125,791.12537,195.6013,66.83416,371.24042,48.187126,67.14037
604.13525,0.05808624,852.01575,802.52545,198.39021,66.72281,377.39804,49.4904,67.02206
612.8053,0.05875598,864.8257,814.0119,201.20657,66.60383,383.6137,50.81368,66.89627
621.5375,0.059422437,877.7471,825.5891,204.0517,66.47798,389.8913,52.157867,66.76377
630.3363,0.06008612,890.78577,837.26196,206.92563,66.345505,396.24057,53.52386,66.624794
639.19196,0.060747385,903.9399,849.0279,209.83592,66.20636,402.65634,54.911983,66.4793
648.12683,0.061406545,917.21497,860.89197,212.76514,66.06127,409.15897,56.323006,66.32801
657.11884,0.06206385,930.6063,872.8492,215.73038,65.90974,415.7143,57.757008,66.17041
666.18964,0.062719464,944.1112,884.89703,218.7074,65.751884,422.3492,59.21415,66.00663
675.3353,0.06337353,957.72894,897.03436,221.69899,65.58742,429.0639,60.694664,65.83637
684.5649,0.06402616,971.4609,909.2619,224.69707,65.41687,435.8559,62.198914,65.660164
693.8356,0.06467742,985.3047,921.57776,227.74219,65.23995,442.70084,63.726967,65.477715
703.1301,0.06532735,999.2563,933.9775,230.84737,65.05662,449.5786,65.27876,65.28897
712.46893,0.06597599,1013.3194,946.46466,233.99568,64.86724,456.50696,66.854744,65.094315
721.87823,0.066623345,1027.5063,959.0504,237.17213,64.672585,463.52048,68.45591,64.894485
731.39215,0.06726941,1041.8186,971.73615,240.34398,64.472916,470.6271,70.08252,64.68978
740.99133,0.067914195,1056.2472,984.513,243.52164,64.267654,477.81915,71.73418,64.47958
750.6652,0.06855767,1070.7874,997.3767,246.71144,64.05683,485.08682,73.41069,64.26395
760.4078,0.069199815,1085.4397,1010.32745,249.9197,63.84026,492.4306,75.11222,64.04266
770.17126,0.06984062,1100.2032,1023.3643,253.1931,63.61832,499.82977,76.838875,63.81612
780.02515,0.07048001,1115.0917,1036.4999,256.47482,63.391693,507.32626,78.591675,63.584988
789.95483,0.07111798,1130.1008,1049.7303,259.77554,63.16033,514.9157,80.3705,63.349243
799.96185,0.0717545,1145.2198,1063.045,263.08316,62.923717,522.5844,82.174675,63.108337
810.04156,0.0723895,1160.4474,1076.4432,266.4016,62.681805,530.3319,84.0042,62.862213
820.1241,0.07302297,1175.7856,1089.9263,269.80212,62.434807,538.09265,85.85935,62.61112
830.2719,0.07365487,1191.2448,1103.5038,273.2319,62.183502,545.9296,87.74098,62.3558
840.4998,0.074285105,1206.8202,1117.1714,276.67154,61.927727,553.852,89.64876,62.09611
850.80725,0.07491369,1222.5098,1130.927,280.11984,61.66737,561.85815,91.58271,61.831932
861.1581,0.075540565,1238.3124,1144.7695,283.61142,61.402596,569.9212,93.54281,61.56341
871.60016,0.07616567,1254.2299,1158.7006,287.1003,61.133614,578.0928,95.52926,61.290775
882.12213,0.07678898,1270.2617,1172.7197,290.59753,60.860382,586.35016,97.54209,61.01397
892.68774,0.07741044,1286.4052,1186.8239,294.1362,60.58288,594.6655,99.581184,60.732975
903.3334,0.07803001,1302.6649,1201.018,297.6845,60.30152,603.0883,101.64696,60.448204
914.0299,0.07864766,1319.0297,1215.291,301.26114,60.015945,611.5728,103.73859,60.159286
924.7718,0.07926335,1335.5123,1229.6552,304.8834,59.7267,620.12695,105.857185,59.86679
935.583,0.079877034,1352.1078,1244.1055,308.52246,59.433685,628.76575,108.002365,59.57059
946.449,0.08048865,1368.8148,1258.6407,312.1918,59.13705,637.4921,110.174065,59.270844
957.3963,0.081098184,1385.6384,1273.2657,315.8694,58.837135,646.31104,112.37277,58.967876
968.4215,0.081705585,1402.5753,1287.9773,319.55576,58.53365,655.2179,114.59825,58.661423
979.4823,0.082310826,1419.6232,1302.7728,323.29047,58.226963,664.19073,116.85036,58.35183
990.628,0.08291386,1436.785,1317.6556,327.02768,57.917057,673.2682,119.1294,58.039093
1001.8587,0.08351467,1454.0588,1332.6235,330.7649,57.603985,682.4434,121.43524,57.72324
1013.13806,0.08411319,1471.4407,1347.6731,334.53503,57.28768,691.6881,123.76756,57.404224
1024.4664,0.08470942,1488.9231,1362.7974,338.33093,56.9682,700.99335,126.12582,57.082092
1035.858,0.08530329,1506.5116,1378.0011,342.14304,56.645523,710.3798,128.51039,56.756824
1047.3182,0.08589479,1524.2166,1393.2942,345.97607,56.320408,719.8467,130.92226,56.429176
1058.8019,0.086483896,1542.0356,1408.6743,349.87253,55.99271,729.36237,133.36125,56.09901
1070.3378,0.087070554,1559.9652,1424.1381,353.8004,55.662445,738.9525,135.82703,55.766323
1081.9423,0.087654755,1578.005,1439.6852,357.74286,55.329754,748.64246,138.31963,55.43127
1093.6194,0.08823645,1596.1575,1455.3182,361.6987,54.994766,758.4245,140.83926,55.09398
1105.3696,0.0888156,1614.4177,1471.0323,365.6627,54.657486,768.308,143.38547,54.754444
1117.201,0.08939222,1632.7849,1486.8267,369.62564,54.31789,778.3033,145.95828,54.412643
1129.1061,0.089966245,1651.258,1502.7007,373.59457,53.976074,788.3875,148.55748,54.06867
1141.0455,0.09053765,1669.8334,1518.6505,377.6049,53.632095,798.5379,151.18279,53.722588
1153.0042,0.09110643,1688.5131,1534.6788,381.67468,53.285946,808.73364,153.83441,53.37438
1165.0424,0.09167252,1707.3036,1550.7906,385.74826,52.938217,819.0299,156.5128,53.024643
1177.1454,0.09223594,1726.203,1566.9851,389.83984,52.58866,829.4395,159.21796,52.67312
1189.298,0.09279665,1745.2122,1583.2622,393.9644,52.23748,839.9333,161.94984,52.32002
1201.5153,0.09335463,1764.3271,1599.6189,398.10376,51.884773,850.51483,164.7081,51.965435
1213.8057,0.09390985,1783.5471,1616.0544,402.24875,51.530582,861.1872,167.49265,51.609413
1226.1625,0.09446229,1802.8694,1632.5663,406.40384,51.17474,871.94434,170.30318,51.251774
1238.5013,0.09501192,1822.2933,1649.1537,410.65247,50.81744,882.72437,173.1396,50.892723
1250.892,0.095558725,1841.8314,1665.8285,414.93655,50.459293,893.58887,176.00307,50.532864
1263.3673,0.0961027,1861.4855,1682.5917,419.2243,50.100147,904.56384,178.89378,50.172043
1275.9224,0.09664382,1881.2507,1699.4395,423.51712,49.740063,915.64075,181.81125,49.810326
1288.4978,0.097182065,1901.1206,1716.3657,427.86798,49.37902,926.76337,184.7548,49.44769
1301.1475,0.09771743,1921.1085,1733.3828,432.23535,49.017277,937.9882,187.72578,49.084385
1313.8567,0.09824989,1941.2101,1750.4862,436.6296,48.654972,949.32263,190.72366,48.72055
1326.6271,0.09877941,1961.4176,1767.6698,441.04276,48.29191,960.755,193.74767,48.355995
1339.4663,0.09930602,1981.7255,1784.9282,445.46204,47.928104,972.2767,196.79727,47.990738
1352.3301,0.099829644,2002.1305,1802.2587,449.92844,47.563408,983.8426,199.87198,47.62461
1365.2701,0.10035033,2022.6418,1819.6692,454.399,47.198296,995.50555,202.97278,47.258106
1378.2898,0.10086805,2043.2622,1837.1622,458.8724,46.83273,1007.2775,206.09984,46.891182
1391.3835,0.10138277,2063.9856,1854.733,463.34937,46.466827,1019.1489,209.25258,46.523956
1404.5359,0.101894505,2084.8103,1872.3796,467.84384,46.100533,1031.1023,212.43071,46.156357
1417.7126,0.102403216,2105.724,1890.0913,472.37863,45.733685,1043.1107,215.63293,45.788242
1430.9352,0.10290892,2126.727,1907.8678,476.93268,45.36635,1055.1844,218.85919,45.419666
1444.2218,0.10341159,2147.8286,1925.7183,481.49637,44.998825,1067.342,222.11037,45.05093
1457.5834,0.10391123,2169.0315,1943.6448,486.06146,44.63124,1079.6132,225.38672,44.68216
1470.9407,0.104407825,2190.327,1961.6395,490.69894,44.263508,1091.9255,228.68726,44.31327
1484.3568,0.104901336,2211.7278,1979.7145,495.35773,43.895947,1104.3376,232.01321,43.944576
1497.8228,0.10539179,2233.2256,1997.8618,500.03912,43.528454,1116.8354,235.36365,43.57598
1511.3492,0.10587918,2254.812,2016.0745,504.7253,43.161045,1129.4164,238.73764,43.20749
1524.9305,0.10636346,2276.4888,2034.3536,509.42307,42.79365,1142.1187,242.13524,42.839043
1538.5686,0.10684465,2298.256,2052.6995,514.1309,42.42652,1154.9081,245.55635,42.470875
1552.2703,0.10732274,2320.1133,2071.1123,518.842,42.05956,1167.7867,249.00092,42.102905
1566.0464,0.10779773,2342.062,2089.5933,523.54675,41.692936,1180.7709,252.46898,41.7353
1579.8851,0.1082696,2364.1096,2108.1484,528.26337,41.326946,1193.8651,255.96123,41.368343
1593.8033,0.10873837,2386.247,2126.7705,532.96716,40.96132,1207.0701,259.47662,41.001778
1607.7748,0.10920402,2408.4731,2145.4583,537.6836,40.59628,1220.3713,263.01495,40.635815
1621.7786,0.109666534,2430.788,2164.212,542.4335,40.23172,1233.7839,266.5761,40.27036
1635.7958,0.11012592,2453.1843,2183.0254,547.22955,39.867683,1247.2472,270.15918,39.905445
1649.8402,0.11058217,2475.6667,2201.9023,552.0621,39.504303,1260.7764,273.76462,39.541203
1663.9366,0.1110353,2498.2292,2220.8376,556.9009,39.141537,1274.3882,277.39163,39.177593
1678.0779,0.11148527,2520.8726,2239.8323,561.7545,38.779488,1288.0989,281.04016,38.81473
1692.2891,0.11193209,2543.6042,2258.8933,566.6042,38.418335,1301.9285,284.71094,38.452774
1706.5286,0.11237579,2566.4253,2278.0212,571.49255,38.058067,1315.8271,288.40405,38.091724
1720.7736,0.11281635,2589.339,2297.2192,576.4458,37.698936,1329.7798,292.11978,37.731827
1735.0507,0.11325376,2612.3525,2316.494,581.44305,37.340946,1343.8057,295.85876,37.373096
1749.313,0.113688014,2635.4631,2335.8428,586.5298,36.984253,1357.8568,299.62057,37.015663
1763.6508,0.11411914,2658.674,2355.2683,591.6177,36.628784,1372.0243,303.4056,36.659485
1778.0574,0.11454714,2681.98,2374.7668,596.7096,36.274597,1386.3015,307.21317,36.3046
1792.5449,0.114971995,2705.3838,2394.3406,601.79565,35.92178,1400.7091,311.04337,35.9511
1807.126,0.115393735,2728.8682,2413.9739,606.84796,35.570133,1415.2745,314.89432,35.59879
1821.7634,0.11581234,2752.4324,2433.6667,611.90314,35.21964,1429.9268,318.76562,35.247643
1836.4486,0.11622781,2776.0713,2453.4148,616.9661,34.870358,1444.658,322.65668,34.897724
1851.1753,0.116640165,2799.783,2473.2158,622.0404,34.522297,1459.483,326.56714,34.54904
1865.9724,0.117049396,2823.5713,2493.0737,627.1013,34.175575,1474.4285,330.49728,34.201714
1880.8334,0.11745552,2847.4426,2512.9946,632.16125,33.83024,1489.474,334.44785,33.855778
1895.705,0.117858544,2871.3918,2532.9739,637.26886,33.486347,1504.6083,338.41806,33.511303
1910.5815,0.118258454,2895.417,2553.0095,642.4279,33.14391,1519.828,342.40756,33.168297
1925.5155,0.11865526,2919.5193,2573.103,647.58746,32.80299,1535.1407,346.4163,32.826828
1940.5013,0.11904897,2943.6921,2593.2485,652.7472,32.463547,1550.539,350.4435,32.48684
1955.5374,0.119439594,2967.9343,2613.4456,657.9082,32.12557,1566.0209,354.4889,32.148335
1970.6228,0.11982715,2992.245,2633.693,663.07025,31.789131,1581.5844,358.55222,31.811378
1985.7566,0.12021161,3016.622,2653.989,668.2325,31.454266,1597.2463,362.633,31.476007
2000.9353,0.12059303,3041.0786,2674.346,673.41064,31.12109,1613.0148,366.73288,31.14234
2015.8136,0.120971374,3065.6177,2694.7656,678.95215,30.789667,1628.5507,370.85202,30.81043
2030.7931,0.12134665,3090.269,2715.2751,684.48224,30.460371,1644.2441,374.99384,30.480661
2045.8372,0.12171888,3115.0166,2735.8606,690.02325,30.133072,1660.0532,379.15637,30.152903
2060.9634,0.122088075,3139.8674,2756.5269,695.5634,29.807838,1675.9988,383.34036,29.827217
2076.1794,0.12245425,3164.8147,2777.27,701.09045,29.484585,1692.0916,387.545,29.503525
2091.4783,0.122817405,3189.8445,2798.0762,706.5977,29.16331,1708.3323,391.7684,29.181818
2106.8208,0.123177536,3214.9375,2818.9294,712.1087,28.843737,1724.6522,396.00806,28.861826
2122.2244,0.12353466,3240.092,2839.8286,717.604,28.525913,1741.084,400.2637,28.54359
2137.697,0.12388878,3265.324,2860.7869,723.08984,28.210043,1757.645,404.537,28.227316
2153.2383,0.12423996,3290.637,2881.808,728.5699,27.896132,1774.329,408.8286,27.913015
2168.8416,0.12458815,3316.0254,2902.888,734.0468,27.584217,1791.1334,413.13748,27.600714
2184.5044,0.124933384,3341.4897,2924.0261,739.5221,27.27426,1808.0408,417.46362,27.290384
2200.2166,0.12527569,3367.0193,2945.2134,744.997,26.966253,1825.0542,421.80563,26.982012
2215.9648,0.12561506,3392.6047,2966.4426,750.47754,26.660149,1842.1761,426.16223,26.675547
2231.7341,0.1259515,3418.2307,2987.699,755.96484,26.355808,1859.3478,430.53122,26.370857
