con,Omega,ygross,ynet,inv,Eind,scc,Dam,Emissions
77.548615,0.0017051001,105.17594,104.996605,27.447992,36.845238,37.169838,0.17933552,39.445236
80.10505,0.0018181846,108.674255,108.47667,28.371618,37.49616,38.16182,0.19758987,40.03704
82.74656,0.0019368625,112.277885,112.060425,29.313866,38.154266,39.231647,0.21746682,40.637375
85.47005,0.0020612483,115.986,115.746925,30.27687,38.81827,40.376255,0.23907594,41.244923
88.27433,0.0021914558,119.79752,119.53499,31.26066,39.486977,41.590614,0.26253098,41.85845
91.156,0.0023275972,123.71052,123.42258,32.26658,40.15883,42.874172,0.2879483,42.47638
94.11744,0.002469785,127.7253,127.40985,33.292404,40.833195,44.228226,0.31545407,43.098053
97.15398,0.002618129,131.83846,131.4933,34.339314,41.50824,45.648296,0.34517008,43.7216
100.26956,0.0027727394,136.05034,135.6731,35.403526,42.18329,47.13849,0.3772321,44.346325
103.45866,0.0029337232,140.35992,139.94815,36.489494,42.85737,48.69376,0.41177717,44.97122
106.72439,0.003101186,144.76428,144.31534,37.590946,43.52912,50.31661,0.44894093,45.59491
110.05938,0.003275231,149.26427,148.77538,38.716,44.197987,52.000465,0.48887494,46.216805
113.46296,0.0034559611,153.8585,153.3268,39.863827,44.863182,53.745777,0.531729,46.836094
116.94085,0.0036434748,158.54648,157.96881,41.027973,45.524033,55.556293,0.57766014,47.45209
120.48744,0.0038378688,163.32925,162.70244,42.21499,46.18038,57.430973,0.62683624,48.064594
124.09868,0.004039237,168.204,167.52458,43.425896,46.830757,59.361916,0.67941576,48.67213
127.78072,0.0042476687,173.17082,172.43527,44.65455,47.475063,61.35715,0.7355724,49.27457
131.53493,0.004463254,178.23146,177.43597,45.901047,48.113083,63.421806,0.7954923,49.871674
135.35469,0.004686076,183.38403,182.52467,47.169987,48.744194,65.54692,0.8593515,50.462795
139.24428,0.0049162162,188.62827,187.70093,48.456654,49.36769,67.73969,0.9273373,51.04722
143.19937,0.005153752,193.9637,192.96407,49.764698,49.98329,69.99333,0.99964076,51.62463
147.21759,0.0053987578,199.39198,198.3155,51.09791,50.591095,72.3077,1.076469,52.195114
151.29964,0.0056513026,204.91203,203.75401,52.45437,51.19043,74.68748,1.1580198,52.75798
155.44989,0.0059114536,210.52322,209.27873,53.82884,51.780956,77.132126,1.2444984,53.31286
159.66954,0.006179274,216.22772,214.8916,55.222046,52.362724,79.64526,1.3361305,53.859795
163.95451,0.0064548217,222.02477,220.59164,56.637108,52.93557,82.22339,1.4331304,54.3986
168.30511,0.006738149,227.91345,226.37773,58.072624,53.498737,84.86425,1.5357147,54.928505
172.72415,0.007029307,233.89378,232.24968,59.525528,54.0523,87.57723,1.6441112,55.449554
177.2089,0.0073283426,239.96706,238.20851,60.99961,54.59603,90.35975,1.7585608,55.961517
181.7511,0.007635294,246.1335,244.2542,62.503094,55.129997,93.20208,1.8793015,56.46444
186.36343,0.0079502,252.39426,250.3877,64.02426,55.65413,96.11793,2.0065846,56.95822
191.04086,0.008273092,258.74835,256.6077,65.56683,56.16811,99.101456,2.1406488,57.44256
195.78299,0.008604,265.19446,262.91272,67.12974,56.6714,102.15561,2.2817333,57.91687
200.59007,0.008942948,271.73404,269.30392,68.713844,57.16414,105.28631,2.4301033,58.381294
205.45859,0.009289951,278.37146,275.7854,70.32682,57.647205,108.48728,2.5860574,58.83668
210.3973,0.009645026,285.10376,282.3539,71.9566,58.11968,111.76207,2.7498333,59.282104
215.40295,0.010008183,291.9318,289.01007,73.607124,58.581623,115.11261,2.921707,59.717625
220.47192,0.010379428,298.8545,295.75256,75.280624,59.03278,118.53198,3.1019385,60.142956
225.60681,0.010758767,305.8732,302.5824,76.97559,59.473186,122.027176,3.2908182,60.55811
230.8065,0.011146189,312.98856,309.4999,78.693405,59.902843,125.59716,3.4886293,60.9631
236.05934,0.011541692,320.20264,316.50696,80.44763,60.32205,129.23186,3.6956801,61.3582
241.386,0.011945262,327.51608,323.60382,82.21783,60.730885,132.95546,3.912265,61.743473
246.79034,0.012356882,334.9255,330.78693,83.99656,61.12854,136.76776,4.138635,62.118103
252.26038,0.012776535,342.43372,338.0586,85.79823,61.515522,140.6619,4.3751163,62.482586
257.78766,0.013204198,350.0385,345.41656,87.62889,61.891167,144.62419,4.621978,62.836243
263.3812,0.013639841,357.7409,352.8614,89.48019,62.255787,148.66772,4.8795295,63.17938
269.02942,0.01408343,365.54413,360.39603,91.3666,62.609783,152.78664,5.1481156,63.512367
274.74017,0.014534931,373.45123,368.02316,93.28299,62.953568,156.98523,5.428088,63.83563
280.5229,0.014994304,381.45923,375.7395,95.216606,63.28669,161.27365,5.719716,64.148705
286.37976,0.0154615035,389.5686,383.5453,97.16552,63.60894,165.6588,6.0233164,64.45135
292.30472,0.01593648,397.77902,391.43985,99.13514,63.92044,170.12938,6.339198,64.74369
298.30365,0.016419189,406.08942,399.42178,101.11815,64.220856,174.68874,6.667659,65.0254
304.35745,0.016909573,414.49902,407.49002,103.13255,64.51018,179.32181,7.0090017,65.29642
310.48837,0.01740757,423.01566,415.65195,105.16359,64.78933,184.05482,7.363674,65.55769
316.68436,0.017913124,431.63287,423.901,107.21668,65.05754,188.88927,7.731893,65.80844
322.94275,0.018426167,440.3512,432.2372,109.294464,65.314644,193.81007,8.113985,66.04846
329.25726,0.018946629,449.17554,440.66513,111.4079,65.561584,198.80663,8.510363,66.278725
335.6319,0.019474441,458.10397,449.18265,113.55077,65.79793,203.88666,8.921318,66.49876
342.08298,0.02000953,467.1346,457.78748,115.704506,66.023415,209.07567,9.347144,66.708305
348.60486,0.02055182,476.26923,466.48102,117.876175,66.23841,214.35718,9.788199,66.90774
355.1835,0.021101229,485.50986,475.26498,120.08148,66.44296,219.722,10.244855,67.09707
361.8246,0.021657674,494.85727,484.1398,122.31523,66.63729,225.17697,10.717457,67.27653
368.5287,0.022221072,504.31335,493.10696,124.57827,66.82179,230.71971,11.206383,67.44649
375.31052,0.022791333,513.8768,502.16486,126.85431,66.996124,236.37558,11.711937,67.60662
382.15842,0.023368372,523.5458,511.31137,129.15294,67.15998,242.14053,12.234411,67.75659
389.07016,0.023952093,533.322,520.54785,131.47769,67.31385,248.003,12.7741785,67.8969
396.04153,0.024542399,543.2046,529.87305,133.83153,67.457504,253.95676,13.331544,68.02728
403.08087,0.025139196,553.1936,539.2868,136.20593,67.59098,260.01248,13.906844,68.147804
410.18274,0.025742387,563.2937,548.79315,138.61037,67.714874,266.16733,14.500524,68.259056
417.3561,0.02635187,573.5052,558.39233,141.03618,67.82927,272.43246,15.112934,68.36107
424.6007,0.026967548,583.8264,568.08203,143.48135,67.933975,278.80566,15.744366,68.45369
431.90982,0.027589306,594.25684,577.8617,145.95184,68.02897,285.27716,16.395134,68.53686
439.2774,0.028217051,604.79443,587.7289,148.45149,68.11406,291.84512,17.065514,68.610405
446.71722,0.028850669,615.44336,597.68744,150.97014,68.189804,298.52795,17.755953,68.67485
454.22797,0.029490056,626.20306,607.73627,153.50833,68.256004,305.32492,18.466763,68.730034
461.80182,0.030135103,637.0737,617.8755,156.07367,68.31301,312.2243,19.19828,68.77626
469.4403,0.030785698,648.0545,628.1037,158.66338,68.360664,319.23434,19.95081,68.81338
477.1406,0.031441726,659.1461,638.4214,161.28078,68.399086,326.35663,20.72469,68.84151
484.90643,0.03210308,670.34973,648.82947,163.92297,68.42848,333.58197,21.520292,68.86084
492.7412,0.032769643,681.65967,659.32196,166.5807,68.44831,340.91846,22.337742,68.87084
500.63977,0.033441294,693.0786,669.90125,169.26141,68.458855,348.36697,23.177446,68.87178
508.60123,0.03411793,704.61096,680.57117,171.96994,68.46081,355.92432,24.03987,68.86434
516.62006,0.03479943,716.25446,691.32916,174.70906,68.45382,363.5853,24.925245,68.84818
524.7064,0.03548567,728.014,702.17993,177.4735,68.43864,371.36688,25.834064,68.82403
532.85376,0.036176547,739.891,713.12427,180.2705,68.41525,379.25757,26.766703,68.791885
541.0716,0.036871936,751.87524,724.1521,183.08057,68.38289,387.27618,27.723097,68.75095
549.3587,0.037571717,763.96826,735.26465,185.90594,68.34178,395.41092,28.703598,68.70148
557.7151,0.03827353,776.17255,746.46564,188.75058,68.29226,403.66525,29.70686,68.643776
566.1465,0.03897724,788.49115,757.75793,191.61147,68.2347,412.06888,30.73321,68.578224
574.65875,0.039682735,800.9224,769.13965,194.48085,68.168884,420.61295,31.782793,68.5046
583.1961,0.040389895,813.4686,780.61273,197.4166,68.09536,429.21817,32.85591,68.42344
591.7917,0.041098606,826.13074,792.1779,200.38625,68.01405,437.93942,33.952824,68.33468
600.46936,0.041808747,838.90314,803.8297,203.36034,67.92469,446.80383,35.07349,68.23802
609.21735,0.0425202,851.7898,815.5715,206.35413,67.82773,455.80353,36.21827,68.133934
618.00775,0.043232836,864.79425,827.40674,209.399,67.72352,464.89105,37.387512,68.02276
626.866,0.043946568,877.9079,839.3269,212.46082,67.61134,474.10837,38.58104,67.903786
635.78436,0.04466126,891.1377,851.3384,215.55402,67.49215,483.45703,39.79933,67.77794
644.7775,0.0453768,904.4858,863.4431,218.66559,67.36588,492.9489,41.04267,67.64517
653.83997,0.046093095,917.95215,875.6409,221.80093,67.23266,502.57214,42.31126,67.50559
662.9695,0.046810012,931.5343,887.92914,224.95964,67.092606,512.33215,43.605137,67.359344
672.1556,0.04752746,945.2333,900.3087,228.15315,66.94569,522.22034,44.924534,67.20636
681.4127,0.048245322,959.0534,912.7835,231.37079,66.79253,532.23236,46.269836,67.047264
690.7176,0.048963502,972.98425,925.3435,234.62593,66.63213,542.35443,47.640717,66.88108
700.0858,0.049681883,987.0374,937.9996,237.91373,66.465775,552.61914,49.037876,66.70907
709.52856,0.050400384,1001.21106,950.7497,241.2211,66.29316,563.0358,50.461422,66.53092
719.0421,0.051118884,1015.501,963.58966,244.54752,66.11423,573.599,51.911274,66.34659
728.623,0.051837284,1029.9049,976.5175,247.89449,65.92896,584.291,53.387474,66.15604
738.2622,0.05255549,1044.4244,989.5341,251.27187,65.73743,595.1206,54.89024,65.95933
747.966,0.0532734,1059.0565,1002.6371,254.67105,65.53968,606.0938,56.41954,65.756546
757.7387,0.05399092,1073.8041,1015.8285,258.08975,65.33591,617.2079,57.97567,65.54783
767.56165,0.054707956,1088.6678,1029.109,261.54752,65.12649,628.4417,59.558792,65.333595
777.45953,0.055424422,1103.6542,1042.4849,265.02527,64.911545,639.8288,61.16939,65.11395
787.4112,0.056140225,1118.7585,1055.951,268.53995,64.69126,651.34564,62.807358,64.88906
797.4312,0.05685526,1133.9784,1069.5057,272.0745,64.465385,663.0051,64.47263,64.65868
807.52313,0.057569444,1149.3195,1083.1538,275.63065,64.23444,674.82465,66.16568,64.423355
817.66986,0.0582827,1164.7789,1096.8925,279.22266,63.998398,686.7739,67.88647,64.18301
827.89557,0.058994938,1180.3577,1110.7224,282.8269,63.75725,698.90424,69.635124,63.937668
838.19885,0.059706055,1196.0538,1124.6422,286.44336,63.51106,711.205,71.41165,63.68737
848.5524,0.06041598,1211.8613,1138.6456,290.09317,63.259697,723.62915,73.21579,63.432003
858.97,0.06112463,1227.783,1152.7351,293.76517,63.00343,736.20807,75.047775,63.171814
869.4596,0.06183192,1243.8179,1166.9102,297.4506,62.742226,748.94196,76.90765,62.90678
879.99115,0.06253778,1259.9666,1181.1709,301.17978,62.476334,761.7932,78.79551,62.63715
890.56696,0.06324214,1276.2272,1195.5159,304.94888,62.205807,774.78705,80.711334,62.362965
901.2149,0.0639449,1292.6035,1209.9481,308.73322,61.930813,787.9409,82.655396,62.0844
911.9206,0.06464598,1309.0956,1224.4678,312.54715,61.651466,801.2278,84.62777,61.801567
922.6936,0.06534535,1325.7051,1239.0764,316.3828,61.368076,814.68115,86.628654,61.514755
933.53094,0.06604289,1342.4332,1253.7751,320.24417,61.080814,828.30536,88.65817,61.22416
944.4297,0.06673855,1359.2803,1268.564,324.13425,60.789654,842.07733,90.7164,60.92974
955.3725,0.06743227,1376.2494,1283.4458,328.07327,60.494865,855.9864,92.80362,60.631767
966.3566,0.06812397,1393.3362,1298.4166,332.06006,60.196453,870.0245,94.91959,60.330246
977.4175,0.068813585,1410.5386,1313.4745,336.05695,59.89444,884.23254,97.06422,60.02518
988.54956,0.06950104,1427.8591,1328.6215,340.07178,59.58881,898.6154,99.23769,59.716583
999.74866,0.07018629,1445.2992,1343.859,344.1103,59.28007,913.16766,101.44018,59.40494
1011.02216,0.07086925,1462.8564,1359.1849,348.16275,58.968002,927.89343,103.67155,59.090034
1022.37286,0.07154989,1480.5284,1374.5968,352.2239,58.652607,942.80634,105.93165,58.771862
1033.7902,0.072228104,1498.3154,1390.095,356.30478,58.333996,957.897,108.220474,58.45054
1045.2722,0.07290387,1516.21,1405.6722,360.40002,58.012226,973.165,110.537575,58.126118
1056.7798,0.07357712,1534.2068,1421.3242,364.5445,57.68688,988.5258,112.88251,57.79818
1068.3204,0.0742478,1552.3091,1437.0538,368.7333,57.358437,1004.00183,115.25554,57.467205
1079.9069,0.074915856,1570.5325,1452.8745,372.96774,57.02746,1019.631,117.65778,57.133755
1091.5763,0.07558124,1588.8838,1468.794,377.21768,56.69431,1035.464,120.08981,56.79819
1103.3274,0.07624388,1607.3583,1484.807,381.4797,56.35898,1051.5034,122.55124,56.4605
1115.1464,0.07690375,1625.9523,1500.9104,385.764,56.02133,1067.7302,125.04184,56.120544
1127.0062,0.07756078,1644.6592,1517.0983,390.09198,55.681335,1084.0985,127.56106,55.77829
1138.9347,0.07821496,1663.48,1533.371,394.4363,55.339027,1100.6423,130.10902,55.433777
1150.9225,0.078866184,1682.4158,1549.73,398.80746,54.99455,1117.3539,132.68571,55.08715
1162.9556,0.07951446,1701.4569,1566.1664,403.21085,54.647785,1134.2095,135.29042,54.738277
1175.061,0.08015972,1720.6149,1582.6909,407.62988,54.299007,1151.2505,137.924,54.38744
1187.2119,0.080801904,1739.8857,1599.2997,412.08774,53.948498,1168.4613,140.58607,54.03492
1199.4302,0.081440985,1759.2701,1615.9933,416.5632,53.596046,1185.8552,143.27669,53.680504
1211.6963,0.08207694,1778.7665,1632.7708,421.07446,53.241817,1203.4121,145.9957,53.32436
1223.987,0.082709715,1798.3776,1649.6343,425.6473,52.886116,1221.0538,148.7433,52.966774
1236.3573,0.083339274,1818.1104,1666.5903,430.233,52.52919,1238.9296,151.51999,52.60802
1248.8102,0.08396558,1837.9603,1683.6351,434.8248,52.170803,1257.0443,154.32541,52.24784
1261.342,0.08458859,1857.9166,1700.7582,439.4161,51.81085,1275.3885,157.15855,51.886135
1273.9395,0.085208274,1877.976,1717.9569,444.01746,51.449516,1293.91,160.01909,51.523087
1286.5615,0.08582461,1898.1385,1735.2316,448.67007,51.086628,1312.5386,162.907,51.158524
1299.2191,0.086437546,1918.3998,1752.5781,453.3589,50.72228,1331.2999,165.82176,50.792545
1311.9507,0.08704708,1938.7778,1770.0128,458.06207,50.357113,1350.2726,168.76495,50.425777
1324.7461,0.087653145,1959.269,1787.533,462.78677,49.99095,1369.4436,171.7361,50.058056
1337.592,0.08825574,1979.8684,1805.1337,467.54153,49.623924,1388.7767,174.73476,49.6895
1350.4581,0.08885481,2000.5774,1822.8167,472.35846,49.25606,1408.2059,177.76093,49.320152
1363.3928,0.08945036,2021.3998,1840.5848,477.19205,48.887627,1427.8558,180.81493,48.950256
1376.3971,0.09004235,2042.3273,1858.4313,482.0341,48.518337,1447.7222,183.89595,48.579544
1389.469,0.090630755,2063.364,1876.3597,486.89078,48.14855,1467.7826,187.00426,48.208363
1402.6067,0.09121555,2084.5095,1894.3698,491.7631,47.77814,1488.047,190.13966,47.836594
1415.7942,0.09179672,2105.7588,1912.4572,496.66284,47.407276,1508.4991,193.30173,47.464405
1429.025,0.09237422,2127.1096,1930.6196,501.59485,47.035885,1529.0973,196.49011,47.091713
1442.3121,0.09294805,2148.5603,1948.8557,506.5436,46.664032,1549.8778,199.70448,46.718586
1455.6267,0.09351818,2170.1118,1967.1667,511.53998,46.291805,1570.7882,202.9449,46.34512
1468.9647,0.0940846,2191.7766,1985.5641,516.5993,45.91958,1591.8323,206.2124,45.97168
1482.3826,0.09464728,2213.565,2004.0573,521.67474,45.547592,1613.1195,209.50793,45.59851
1495.8661,0.095206216,2235.4663,2022.636,526.77,45.175713,1634.6426,212.83026,45.22548
1509.4205,0.095761396,2257.4648,2041.2867,531.8662,44.803688,1656.388,216.178,44.852314
1522.9924,0.096312806,2279.5623,2060.0112,537.019,44.43162,1678.2279,219.55103,44.47915
1536.6283,0.09686041,2301.759,2078.8096,542.18134,44.0597,1700.2783,222.94933,44.106144
1550.3353,0.097404204,2324.055,2097.6824,547.34705,43.68781,1722.5737,226.37273,43.7332
1564.0616,0.09794418,2346.4443,2116.6235,552.5619,43.31609,1744.9814,229.82056,43.360447
1577.843,0.09848032,2368.9382,2135.6443,557.8013,42.944664,1767.5779,233.29381,42.98801
1591.6995,0.09901263,2391.5432,2154.7502,563.05084,42.57379,1790.3999,236.79297,42.61615
1605.6129,0.099541076,2414.2505,2173.9333,568.32043,42.203457,1813.442,240.3171,42.244854
1619.604,0.10006568,2437.0562,2193.1904,573.5864,41.833492,1836.729,243.86568,41.873947
1633.6683,0.10058641,2459.9646,2212.5254,578.8571,41.4642,1860.2548,247.439,41.50373
1647.7864,0.101103246,2482.9663,2231.9302,584.14386,41.09532,1883.9894,251.03595,41.13396
1661.8895,0.10161622,2506.0479,2251.3928,589.5033,40.726788,1907.7806,254.65509,40.76455
1676.0048,0.102125295,2529.2166,2270.9197,594.91473,40.358795,1931.6515,258.297,40.395695
1690.1758,0.10263045,2552.492,2290.5283,600.3524,39.991707,1955.7063,261.96338,40.027763
1704.4233,0.103131734,2575.8784,2310.2236,605.80035,39.625668,1980.0018,265.65482,39.66091
1718.7139,0.10362912,2599.368,2329.9978,611.2839,39.260586,2004.4905,269.3702,39.295025
1733.0321,0.10412259,2622.9614,2349.852,616.8199,38.896458,2029.1849,273.10956,38.930115
1747.4015,0.10461214,2646.6462,2369.7751,622.3736,38.533287,2054.06,276.87134,38.56618
1761.8141,0.1050978,2670.4238,2389.768,627.9539,38.171017,2079.0908,280.65564,38.20316
1776.2848,0.10557955,2694.2983,2409.8354,633.55054,37.809895,2104.33,284.46277,37.84131
1790.7979,0.106057376,2718.2676,2429.975,639.17737,37.44981,2129.7441,288.29233,37.48051
1805.3732,0.106531285,2742.3298,2450.186,644.81274,37.09085,2155.4036,292.1439,37.12085
1820.0193,0.107001275,2766.4893,2470.4712,650.45184,36.73313,2181.313,296.01788,36.762447
1834.7267,0.10746736,2790.7395,2490.8262,656.09955,36.37661,2207.4358,299.9134,36.405262
1849.4814,0.10792955,2815.083,2511.2527,661.7711,36.021313,2233.757,303.83066,36.049313
1864.2842,0.10838784,2839.5173,2531.7483,667.4642,35.667305,2260.2766,307.76917,35.69467
1879.126,0.10884222,2864.0454,2552.3164,673.1905,35.31468,2287.009,311.72906,35.341423
1894.0216,0.10929269,2888.667,2572.9568,678.9352,34.963467,2313.9644,315.71017,34.9896
1908.9534,0.10973928,2913.3699,2593.6587,684.70526,34.613514,2341.0745,319.71112,34.639057
1923.9332,0.110181995,2938.1467,2614.416,690.4828,34.26485,2368.38,323.7309,34.289806
1938.9296,0.110620804,2962.9958,2635.2268,696.29724,33.91748,2395.7903,327.76895,33.941875
1953.9781,0.111055754,2987.9468,2656.1182,702.14,33.571823,2423.4102,331.8287,33.59566
1969.0488,0.11148682,3012.9885,2677.0803,708.0315,33.227764,2451.171,335.9085,33.251057
1984.1075,0.11191403,3038.1233,2698.1147,714.0071,32.88531,2479.0005,340.00864,32.908073
1999.2303,0.11233739,3063.3508,2719.222,719.9915,32.544544,2507.0552,344.1288,32.56679
2014.417,0.11275687,3088.6702,2740.4016,725.9847,32.205513,2535.3806,348.26883,32.227257
2029.6539,0.11317255,3114.068,2761.641,731.9874,31.868036,2563.899,352.42703,31.889282
2044.9747,0.11358439,3139.5427,2782.94,737.96497,31.532135,2592.7258,356.60306,31.552898
2060.3623,0.11399241,3165.0974,2804.3005,743.9383,31.197943,2621.8362,360.79706,31.218235
2075.7925,0.114396594,3190.7183,2825.7114,749.9189,30.865374,2651.1245,365.00735,30.885204
2091.2666,0.114796996,3216.4084,2847.1743,755.9076,30.534468,2680.5928,369.234,30.553846
2106.7483,0.11519361,3242.1675,2868.6907,761.94226,30.205235,2710.164,373.47696,30.224173
2122.2637,0.11558645,3268.0278,2890.288,768.02435,29.878101,2739.9597,377.73975,29.896608
2137.793,0.11597553,3293.9724,2911.9524,774.15924,29.55282,2769.937,382.02017,29.57091
2153.369,0.11636085,3319.989,2933.672,780.3033,29.229326,2800.1055,386.31674,29.247002
2168.9917,0.11674241,3346.077,2955.448,786.4561,28.907692,2830.4668,390.6291,28.924967
2184.6592,0.11712025,3372.2332,2977.2761,792.6171,28.587858,2861.0146,394.9568,28.604742
2200.3782,0.11749437,3398.4575,2999.1582,798.77985,28.269922,2891.7898,399.29962,28.286419
2216.126,0.1178648,3424.7583,3021.0999,804.97406,27.95392,2922.7532,403.65845,27.970045
2231.889,0.11823151,3451.154,3043.119,811.2299,27.640087,2953.8452,408.0352,27.655842
2247.71,0.11859456,3477.6377,3065.2087,817.4989,27.328365,2985.2056,412.42892,27.343763
2263.571,0.11895395,3504.1821,3087.3457,823.77496,27.018528,3016.7446,416.83633,27.033579
