con,Omega,ygross,ynet,inv,Eind,scc,Dam,Emissions
77.2154,0.0028556,105.17594,104.8756,27.66021,36.845238,14.465466,0.3003404,39.445236
79.737595,0.002278755,108.63632,108.38877,28.65118,37.483063,14.820357,0.24755555,40.023945
82.36108,0.0021306989,112.21029,111.9712,29.610125,38.131294,15.229166,0.23908634,40.614407
85.06161,0.0021321492,115.88691,115.63981,30.578205,38.785103,15.663299,0.2470882,41.211754
87.84902,0.0021906174,119.66082,119.39869,31.549662,39.441914,16.126032,0.26213107,41.81339
90.70511,0.002272229,123.5302,123.24951,32.544395,40.10029,16.602112,0.2806889,42.417843
93.63363,0.0023640434,127.493866,127.19246,33.558834,40.759205,17.092646,0.30140102,43.024063
96.62015,0.0024610688,131.55045,131.22668,34.60654,41.41756,17.593721,0.3237547,43.630917
99.70198,0.002561404,135.69402,135.34647,35.644485,42.07282,18.116812,0.3475672,44.23585
102.83877,0.0026643516,139.92607,139.55325,36.714493,42.724895,18.647926,0.37281224,44.838745
106.05018,0.002769679,144.2452,143.84567,37.795506,43.373035,19.199688,0.3995129,45.438828
109.3259,0.0028773327,148.64955,148.22183,38.895935,44.015976,19.76616,0.42771423,46.03479
112.65765,0.0029873187,153.13832,152.68086,40.0232,44.653183,20.341356,0.45747298,46.6261
116.05297,0.0030996646,157.71036,157.22151,41.168545,45.28396,20.932043,0.48884925,47.212017
119.51195,0.003214399,162.36632,161.84439,42.332447,45.90811,21.5368,0.52191013,47.792328
123.050446,0.003331545,167.10524,166.54852,43.498066,46.524845,22.17055,0.5567186,48.36622
126.64483,0.003451122,171.92442,171.33109,44.686253,47.133358,22.815449,0.5933322,48.932865
130.30473,0.0035731446,176.8234,176.19159,45.886868,47.732983,23.471497,0.63181555,49.491566
134.02222,0.0036976195,181.8034,181.13115,47.108936,48.324055,24.138195,0.67223984,50.042656
137.79893,0.0038245516,186.8639,186.14925,48.350296,48.905926,24.817753,0.71467066,50.58545
141.6289,0.0039539374,192.00531,191.24612,49.61723,49.478622,25.50718,0.75917697,51.11996
145.51593,0.004085774,197.22684,196.42102,50.905087,50.041748,26.20724,0.8058244,51.645763
149.45998,0.0042200526,202.52834,201.67365,52.21368,50.59495,26.917885,0.85468024,52.1625
153.46771,0.0043567643,207.90959,207.00377,53.536068,51.138096,27.641668,0.9058131,52.67
157.55473,0.004495896,213.37105,212.41176,54.85701,51.670937,28.383257,0.959294,53.168007
161.69142,0.0046374323,218.91426,217.89906,56.20764,52.193954,29.133316,1.0152,53.656982
165.88277,0.004781356,224.53717,223.46356,57.580803,52.70621,29.896809,1.0735922,54.13598
170.13287,0.0049276496,230.24031,229.10577,58.972897,53.20799,30.67264,1.1345435,54.605244
174.44144,0.0050762924,236.02393,234.82579,60.384365,53.698914,31.459774,1.1981263,55.0644
178.80597,0.0052272617,241.8881,240.62369,61.817734,54.179096,32.258377,1.2644124,55.51354
183.23396,0.005380534,247.83263,246.49915,63.265175,54.648262,33.071842,1.3334719,55.95236
187.72739,0.0055360855,253.85847,252.45306,64.725685,55.106632,33.900497,1.4053822,56.38108
192.28194,0.0056938888,259.9657,258.48547,66.20355,55.554028,34.74172,1.4802159,56.79949
196.89423,0.0058539193,266.15457,264.59653,67.70229,55.9904,35.593864,1.5580474,57.20755
201.55872,0.0060161487,272.42578,270.7868,69.22813,56.415924,36.45374,1.6389539,57.605404
206.2856,0.006180548,278.78314,277.06012,70.77451,56.831196,37.32771,1.7230325,57.99363
211.07178,0.00634709,285.2238,283.41345,72.34168,57.235542,38.213554,1.810341,58.371544
215.9161,0.0065157455,291.74747,289.84653,73.93044,57.628933,39.10935,1.9009525,58.7391
220.82228,0.006686485,298.35434,296.35938,75.53712,58.01123,40.02138,1.9949418,59.09616
225.78864,0.006859278,305.04483,302.95242,77.16377,58.382492,40.950783,2.092387,59.44275
230.82027,0.0070340945,311.82,309.6266,78.80635,58.742863,41.891056,2.1933713,59.77902
235.90747,0.0072109043,318.6803,316.3823,80.47482,59.09247,42.847828,2.297973,60.105064
241.05603,0.0073896716,325.624,323.21774,82.16172,59.43088,43.81919,2.4062545,60.420444
246.26254,0.0075703664,332.6536,330.13528,83.87274,59.7586,44.805466,2.5183096,60.725666
251.52208,0.007752955,339.7686,337.13437,85.6123,60.075317,45.80102,2.6342103,61.020393
256.83582,0.007937404,346.97165,344.21756,87.38176,60.381664,46.806908,2.754054,61.305256
262.2083,0.008123682,354.26593,351.38797,89.17968,60.678062,47.82474,2.8779438,61.58065
267.64798,0.008311757,361.65045,358.64447,90.996506,60.964275,48.85926,3.0059505,61.846336
273.1522,0.008501595,369.1221,365.98398,92.83177,61.239876,49.9128,3.1381264,62.101887
278.71936,0.008693162,376.683,373.40845,94.68911,61.50497,50.982254,3.2745667,62.347374
284.36105,0.00888643,384.3379,380.9225,96.56144,61.76054,52.07135,3.415392,62.58379
290.0709,0.009081364,392.0809,388.52026,98.44941,62.00548,53.17536,3.5606296,62.810013
295.83975,0.009277931,399.91202,396.2017,100.361946,62.239937,54.288258,3.7103565,63.026184
301.67715,0.0094761,407.83212,403.96747,102.290306,62.463818,55.420174,3.8646579,63.232178
307.57053,0.009675835,415.84393,411.8203,104.24978,62.67777,56.56029,4.0236373,63.42867
313.52975,0.0098771,423.94623,419.75888,106.22912,62.881393,57.716972,4.1873593,63.61522
319.53662,0.0100798635,432.13855,427.78262,108.24599,63.074863,58.882328,4.355898,63.792004
325.62488,0.010284093,440.42343,435.89407,110.269226,63.258453,60.058895,4.529356,63.95929
331.76743,0.010489755,448.80142,444.09357,112.32615,63.432247,61.25298,4.707817,64.11714
337.97144,0.01069681,457.27008,452.37878,114.40731,63.59605,62.458855,4.891331,64.26537
344.2533,0.010905236,465.83118,460.7512,116.49785,63.749897,63.676792,5.079999,64.404
350.5986,0.0111149885,474.48703,469.2131,118.61453,63.894245,64.909294,5.273918,64.53348
357.00613,0.011326038,483.2341,477.76102,120.75486,64.02877,66.16476,5.473128,64.653465
363.48227,0.011538356,492.06805,486.3904,122.908134,64.15283,67.43238,5.677656,64.76332
370.02267,0.011751902,500.99292,495.10535,125.08267,64.26693,68.71334,5.8876204,64.86354
376.61993,0.011966648,510.01334,503.91016,127.290245,64.37192,70.01765,6.1031494,64.954956
383.2853,0.012182557,519.1298,512.80554,129.52023,64.46778,71.33889,6.324329,65.037575
389.9977,0.012399595,528.3416,521.79034,131.79265,64.554474,72.67768,6.551222,65.111305
396.78183,0.012617734,537.64746,530.8635,134.08174,64.631874,74.03793,6.783892,65.17605
403.6487,0.012836941,547.0494,540.0269,136.37827,64.700294,75.42374,7.0224404,65.2321
410.57614,0.0130571835,556.54614,549.27924,138.7031,64.75965,76.82204,7.2669253,65.27936
417.5723,0.013278431,566.13885,558.6214,141.04909,64.8101,78.235374,7.5174356,65.31798
424.64304,0.013500654,575.8278,568.0538,143.41077,64.85175,79.66164,7.774052,65.34808
431.7912,0.013723815,585.6144,577.5775,145.7863,64.88481,81.106834,8.036863,65.36986
438.99423,0.013947886,595.4947,587.1888,148.19453,64.90879,82.56652,8.305892,65.38282
446.25275,0.014172844,605.4667,596.8855,150.63275,64.92381,84.043884,8.581185,65.38706
453.5793,0.01439865,615.5327,606.66986,153.09053,64.93008,85.538536,8.862841,65.38279
460.98813,0.014625277,625.69434,616.5434,155.55528,64.92782,87.05059,9.150953,65.37025
468.4518,0.0148526905,635.9533,626.5076,158.05585,64.91733,88.566536,9.445618,65.34969
475.96375,0.015080862,646.3104,636.56354,160.59978,64.89874,90.08965,9.746919,65.32128
483.54312,0.015309761,656.7629,646.708,163.16484,64.87176,91.62739,10.054882,65.28468
491.18747,0.015539364,667.3097,656.9402,165.75266,64.83658,93.18214,10.369569,65.24011
498.8926,0.015769636,677.9516,667.26056,168.36794,64.79314,94.75355,10.69105,65.18749
506.674,0.016000548,688.68634,677.66693,170.99294,64.741554,96.34006,11.019359,65.126945
514.5204,0.016232077,699.5163,688.1617,173.64128,64.68193,97.93984,11.354602,65.05857
522.4095,0.016464189,710.4463,698.74945,176.3399,64.61494,99.56135,11.696921,64.983
530.38007,0.016696852,721.48303,709.4365,179.05646,64.54121,101.20659,12.046495,64.90091
538.4187,0.016914206,732.6204,720.2288,181.81009,64.4603,102.864685,12.391693,64.81181
546.533,0.01712562,743.85736,731.11835,184.58533,64.37216,104.54273,12.739018,64.71568
554.71747,0.017334737,755.1934,742.10223,187.38477,64.27676,106.24193,13.091079,64.61247
562.97076,0.017542958,766.63007,753.18115,190.21037,64.17451,107.95859,13.44896,64.50259
571.30945,0.017750818,778.1672,764.35406,193.04462,64.06528,109.697464,13.813104,64.3859
579.7211,0.01795851,789.80695,775.62317,195.90205,63.94945,111.45778,14.183757,64.26278
588.20715,0.018166095,801.5495,786.98846,198.78133,63.827114,113.24137,14.561025,64.13332
596.7651,0.018373584,813.3928,798.44794,201.68279,63.69818,115.04153,14.9449415,63.997425
605.39136,0.01858097,825.3346,809.999,204.60774,63.56246,116.860115,15.335517,63.8549
614.08655,0.01878823,837.37384,821.64105,207.55453,63.42023,118.699196,15.732771,63.70602
622.85626,0.018995347,849.5069,833.37024,210.51392,63.27106,120.554436,16.136677,63.55035
631.69434,0.019202301,861.74335,845.1959,213.5016,63.115803,122.431015,16.547457,63.388744
640.60236,0.019409064,874.0794,857.11444,216.51204,62.95449,124.32622,16.965063,63.221222
649.581,0.019615617,886.515,869.12555,219.54451,62.786995,126.24008,17.38954,63.04767
658.63416,0.01982194,899.0487,881.2278,222.5937,62.613552,128.17166,17.82089,62.86829
667.751,0.02002801,911.6815,893.42236,225.67139,62.433987,130.12968,18.259167,62.68294
676.9345,0.020233808,924.41406,905.70966,228.77515,62.24881,132.10603,18.704416,62.4921
686.1551,0.020439308,937.24664,918.08997,231.93488,62.057884,134.09032,19.156673,62.295643
695.4425,0.020644493,950.18274,930.56665,235.12416,61.861687,136.09052,19.616041,62.09404
704.81946,0.020849347,963.22266,943.14,238.32059,61.66032,138.11679,20.082563,61.88739
714.26544,0.021053853,976.35834,955.8022,241.53682,61.453255,140.16203,20.556105,61.675163
723.78595,0.021257985,989.5921,968.55536,244.76945,61.24088,142.2301,21.036734,61.457737
733.381,0.021461725,1002.9282,981.4037,248.02267,61.02345,144.31993,21.52457,61.235374
743.04694,0.021665053,1016.36487,994.3453,251.29832,60.80116,146.42961,22.019598,61.00827
752.78796,0.021867959,1029.9019,1007.37994,254.59203,60.573795,148.56224,22.521852,60.776196
762.5798,0.022070419,1043.5334,1020.50214,257.9224,60.34143,150.71388,23.03122,60.539238
772.4412,0.02227242,1057.2646,1033.7169,261.2757,60.104294,152.88412,23.547842,60.297596
782.37164,0.02247394,1071.0938,1047.0221,264.65042,59.862476,155.07248,24.071697,60.051388
792.38055,0.022674963,1085.018,1060.4153,268.03464,59.615955,157.28047,24.602743,59.800568
802.45746,0.02287548,1099.0409,1073.8998,271.44226,59.364918,159.50478,25.141087,59.545334
812.6032,0.023075461,1113.1642,1087.4775,274.87433,59.109585,161.74776,25.686779,59.28589
822.8229,0.023274902,1127.384,1101.1442,278.32144,58.849937,164.01231,26.239754,59.022236
833.10614,0.023473777,1141.697,1114.8971,281.791,58.58595,166.28844,26.799944,58.75433
843.44965,0.023672076,1156.1077,1128.7402,285.2906,58.31784,168.57896,27.36747,58.4824
853.842,0.02386978,1170.6205,1142.678,288.836,58.046043,170.886,27.942451,58.20686
864.28485,0.02406688,1185.2311,1156.7063,292.4215,57.77049,173.20819,28.524817,57.927643
874.79083,0.02426336,1199.9457,1170.8309,296.04013,57.491413,175.55508,29.114714,57.645
885.36743,0.024459204,1214.7607,1185.0486,299.68118,57.208794,177.9258,29.712078,57.358887
896.0181,0.024654401,1229.677,1199.36,303.34186,56.922844,180.31758,30.31695,57.069523
906.7398,0.024848936,1244.6924,1213.7631,307.02332,56.633595,182.7305,30.929281,56.77694
917.53217,0.025042802,1259.8064,1228.2573,310.72516,56.340984,185.16449,31.54908,56.481068
928.389,0.025235979,1275.0171,1242.8408,314.45187,56.045067,187.6193,32.176304,56.181965
939.29553,0.025428459,1290.3297,1257.5186,318.22314,55.74625,190.09546,32.8111,55.88004
950.2651,0.025620224,1305.745,1272.2915,322.02643,55.44468,192.59113,33.45348,55.575424
961.31934,0.025811262,1321.2617,1287.1582,325.839,55.14019,195.11246,34.103436,55.267963
972.4686,0.026001574,1336.8774,1302.1165,329.6478,54.833073,197.6666,34.760918,54.957943
983.6684,0.026191138,1352.5887,1317.1628,333.49445,54.523087,200.23732,35.425835,54.645115
994.93585,0.026379945,1368.403,1332.3044,337.36862,54.210644,202.8324,36.098392,54.329895
1006.2562,0.026567988,1384.3179,1347.5394,341.2831,53.895733,205.44421,36.77854,54.01227
1017.63605,0.02675525,1400.3309,1362.8646,345.22855,53.57854,208.08366,37.4662,53.692432
1029.1069,0.02694172,1416.4393,1378.278,349.171,53.258766,210.75407,38.161312,53.370068
1040.65,0.027127402,1432.6414,1393.7775,353.12747,52.936665,213.44794,38.86384,53.045437
1052.2634,0.027312273,1448.9381,1409.3643,357.10092,52.61226,216.16446,39.573795,52.71856
1063.9459,0.027496325,1465.327,1425.0359,361.09006,52.28558,218.90356,40.29111,52.38946
1075.6945,0.027679553,1481.8068,1440.791,365.0966,51.956753,221.66469,41.01575,52.05827
1087.4917,0.02786194,1498.3777,1456.63,369.1382,51.62582,224.44545,41.74771,51.72503
1099.3534,0.028043482,1515.0442,1472.5571,373.2037,51.293106,227.24979,42.487114,51.39006
1111.2865,0.028224172,1531.804,1488.5701,377.28357,50.958553,230.08084,43.2339,51.053307
1123.289,0.028403996,1548.6544,1504.6666,381.3776,50.622185,232.93561,43.987976,50.714783
1135.3364,0.02858295,1565.5923,1520.8431,385.50665,50.284058,235.81071,44.749245,50.37455
1147.4255,0.028761014,1582.6218,1537.1041,389.67853,49.944237,238.69476,45.51781,50.03267
1159.5817,0.028938197,1599.7473,1553.4536,393.8719,49.603233,241.60562,46.2938,49.68966
1171.8147,0.029114483,1616.9613,1569.8843,398.06964,49.260616,244.54848,47.07699,49.345074
1184.1222,0.029289862,1634.2732,1586.4055,402.2835,48.91687,247.52303,47.867638,48.99941
1196.499,0.02946433,1651.6775,1603.0118,406.5129,48.572002,250.52122,48.66557,48.652664
1208.9254,0.029637882,1669.1719,1619.7013,410.77588,48.22604,253.54031,49.470722,48.304867
1221.3912,0.029810512,1686.7561,1636.4731,415.0818,47.87884,256.58084,50.283062,47.955875
1233.9254,0.029982205,1704.4299,1653.3275,419.40195,47.530632,259.64548,51.10257,47.605915
1246.5261,0.030152963,1722.1906,1670.2614,423.7353,47.181583,262.73386,51.92915,47.255154
1259.192,0.03032278,1740.0365,1687.2737,428.0817,46.83146,265.84537,52.76274,46.90336
1271.912,0.03049165,1757.9658,1704.3625,432.45047,46.480427,268.98035,53.60328,46.550694
1284.6993,0.03065957,1775.9857,1721.5348,436.83545,46.12881,272.1495,54.45096,46.197475
1297.5587,0.03082652,1794.0968,1738.7909,441.23224,45.776558,275.34058,55.30576,45.843662
1310.4861,0.030992512,1812.2952,1756.1276,445.6415,45.42383,278.55664,56.167583,45.489407
1323.4796,0.031157527,1830.5786,1773.5424,450.06262,45.070534,281.79715,57.0363,45.13462
1336.4828,0.031321567,1848.9452,1791.0334,454.5506,44.716816,285.03497,57.91186,44.779446
1349.5139,0.03148463,1867.3961,1808.6018,459.08795,44.362602,288.27676,58.794277,44.42381
1362.6368,0.031646714,1885.933,1826.2495,463.6126,44.008198,291.5579,59.683586,44.06801
1375.8265,0.0318078,1904.5698,1843.9897,468.16318,43.653828,294.8606,60.580173,43.71228
1389.0802,0.031967897,1923.2977,1861.8141,472.73395,43.299507,298.1944,61.483788,43.356632
1402.3882,0.032126997,1942.1084,1879.7141,477.32593,42.945023,301.55515,62.39411,43.000847
1415.7498,0.0322851,1961.0028,1897.6917,481.94193,42.590515,304.9364,63.311176,42.645073
1429.1726,0.03244219,1979.9786,1915.7437,486.57114,42.235973,308.341,64.23484,42.28929
1442.6512,0.03259829,1999.0354,1933.8702,491.21902,41.881485,311.76523,65.16514,41.933586
1456.186,0.032753374,2018.1755,1952.0737,495.88766,41.52714,315.2086,66.10206,41.578064
1469.7561,0.03290745,2037.3986,1970.353,500.59702,41.17304,318.6644,67.045586,41.2228
1483.3765,0.033060506,2056.7034,1988.7079,505.3314,40.819195,322.14703,67.99565,40.86782
1497.0563,0.03321255,2076.0876,2007.1356,510.07928,40.465637,325.67114,68.95216,40.513165
1510.8,0.033363573,2095.5537,2025.6385,514.8384,40.112564,329.22086,69.91515,40.159008
1524.6077,0.033513572,2115.1006,2044.216,519.6083,39.75986,332.7957,70.884575,39.805252
1538.477,0.033662546,2134.7263,2062.866,524.38885,39.407707,336.39612,71.86032,39.45206
1552.3876,0.033810496,2154.428,2081.5857,529.1982,39.055973,340.01834,72.84228,39.099323
1566.3302,0.033957426,2174.2139,2100.383,534.05286,38.704937,343.66916,73.8307,38.747295
1580.3369,0.034103323,2194.082,2119.2563,538.9195,38.354694,347.3462,74.82548,38.39609
1594.4071,0.034248184,2214.03,2138.2036,543.79645,38.00511,351.0491,75.82651,38.04557
1608.5393,0.034392018,2234.0562,2157.2224,548.6832,37.656372,354.77786,76.833694,37.69591
1622.732,0.03453482,2254.158,2176.311,553.579,37.30833,358.53192,77.84693,37.346973
1636.9775,0.03467659,2274.333,2195.467,558.4896,36.961098,362.30322,78.86612,36.998863
1651.2589,0.034817323,2294.5874,2214.6958,563.43695,36.61481,366.09875,79.89139,36.651714
1665.5897,0.034957025,2314.9177,2233.9949,568.405,36.269463,369.91965,80.92264,36.305523
1679.9772,0.035095684,2335.3215,2253.3618,573.3846,35.9251,373.7644,81.95971,35.96034
1694.3911,0.03523331,2355.7969,2272.7944,578.4032,35.581715,377.6186,83.002525,35.61615
1708.8535,0.0353699,2376.3484,2292.2974,583.4437,35.239384,381.491,84.05121,35.27304
1723.3414,0.03550546,2396.9739,2311.8682,588.5266,34.898235,385.36996,85.10566,34.93113
1737.8927,0.03563998,2417.6782,2331.5125,593.6196,34.558273,389.2753,86.16601,34.59042
1752.5037,0.03577346,2438.456,2351.224,598.7205,34.21959,393.20627,87.23201,34.251003
1767.1729,0.035905913,2459.3052,2371.0017,603.8287,33.88206,397.16245,88.3036,33.912766
1781.902,0.036037326,2480.2236,2390.8428,608.9409,33.54578,401.14545,89.38063,33.575783
1796.6925,0.036167704,2501.207,2410.7441,614.05164,33.210743,405.1586,90.46291,33.24006
1811.5288,0.03629705,2522.2505,2430.7004,619.17145,32.876923,409.1966,91.55025,32.90558
1826.3867,0.036425367,2543.3542,2450.7117,624.325,32.544315,413.26205,92.64261,32.572315
1841.3035,0.03655265,2564.5378,2470.797,629.49365,32.213276,417.35483,93.74066,32.240643
1856.2357,0.036678903,2585.7976,2490.9531,634.71747,31.883787,421.46045,94.844215,31.910528
1871.1759,0.036804117,2607.1335,2511.1804,640.00464,31.555887,425.57672,95.953255,31.582022
1886.1758,0.03692831,2628.5442,2531.4766,645.3007,31.22952,429.7191,97.06769,31.25506
1901.2323,0.037051488,2650.024,2551.8367,650.60455,30.904743,433.8868,98.18734,30.929699
1916.343,0.037173636,2671.5698,2572.258,655.915,30.581522,438.07956,99.311966,30.605915
1931.5079,0.037294757,2693.1816,2592.7402,661.23224,30.259916,442.2972,100.44156,30.283754
1946.7223,0.037414856,2714.853,2613.2769,666.55475,29.939867,446.53842,101.575836,29.963161
1961.9877,0.037533943,2736.5842,2633.8694,671.8816,29.62138,450.8038,102.71479,29.644148
1977.299,0.037652,2758.3718,2654.5137,677.2148,29.304497,455.09598,103.85822,29.326744
1992.6569,0.03776904,2780.2205,2675.2144,682.5575,28.989317,459.4227,105.006256,29.011057
2008.0693,0.03788508,2802.1343,2695.975,687.90564,28.67584,463.77454,106.15908,28.697088
2023.5327,0.0380001,2824.1077,2716.7913,693.2587,28.364048,468.15094,107.316376,28.384811
2039.0486,0.038114112,2846.1406,2737.6624,698.6137,28.05403,472.5517,108.47812,28.074322
2054.6118,0.03822711,2868.225,2758.5813,703.9693,27.745735,476.97522,109.64396,27.765568
2070.1948,0.038339116,2890.3628,2779.5488,709.3543,27.439209,481.42007,110.81396,27.458588
2085.7935,0.03845011,2912.5525,2800.5645,714.771,27.134417,485.87692,111.987976,27.153355
2101.362,0.038560115,2934.7976,2821.6316,720.26953,26.831532,490.33905,113.16613,26.85004
2116.9868,0.038669113,2957.111,2842.7622,725.77545,26.530575,494.82648,114.34888,26.548662
2132.666,0.03877712,2979.49,2863.9539,731.288,26.231558,499.33966,115.53605,26.249235
2148.3965,0.038884148,3001.9304,2885.2026,736.8064,25.934511,503.87772,116.7275,25.951786
2164.1748,0.038990173,3024.427,2906.504,742.3291,25.639359,508.43964,117.92293,25.65624
2179.9998,0.03909521,3046.977,2927.8552,747.85547,25.346148,513.0252,119.122215,25.362644
2195.8696,0.039199278,3069.581,2949.2559,753.3862,25.054855,517.6341,120.32536,25.07098
2211.7825,0.039302364,3092.2336,2970.7017,758.919,24.76551,522.2657,121.5321,24.781267
2227.7356,0.03940447,3114.9324,2992.1904,764.4546,24.478113,526.9193,122.74227,24.493513
