con,Omega,Theta,ygross,ynet,inv,Eind,scc,carbontax,Abatement,Dam,Emissions
77.23714,0.0028556,0.0010621994,105.17594,104.8756,27.527071,29.646008,40.456444,40.346874,0.11171782,0.3003404,32.246006
79.71331,0.003498102,0.0011206471,108.68932,108.30912,28.474436,29.96304,41.573483,42.010204,0.121802375,0.38020638,32.50392
82.278984,0.0041023893,0.001175699,112.30902,111.84829,29.437809,30.289324,42.74676,43.591805,0.13204162,0.46073535,32.772438
84.937584,0.0046653054,0.0012253374,116.03737,115.49602,30.416912,30.629444,43.979736,45.04996,0.14218493,0.54134977,33.056095
87.68297,0.0051877643,0.0012766076,119.86752,119.24568,31.410482,30.9625,45.265423,46.54691,0.1530238,0.6218444,33.333977
90.52672,0.005672881,0.0013363105,123.79782,123.09552,32.404305,31.269691,46.600426,48.233868,0.16543232,0.70229024,33.587246
93.44425,0.006124777,0.0013935404,127.831375,127.04844,33.427135,31.579126,47.99579,49.86654,0.1781382,0.7829386,33.843983
96.432945,0.0065478594,0.0014520108,131.95895,131.0949,34.4716,31.878227,49.437733,51.52852,0.19160582,0.8640486,34.091587
99.494286,0.0069464697,0.0015099369,136.1804,135.23444,35.535954,32.17084,50.929375,53.181465,0.20562384,0.94597316,34.333874
102.63277,0.007324642,0.0015692974,140.50134,139.47221,36.620575,32.45261,52.473457,54.86914,0.22048838,1.0291219,34.56646
105.82383,0.007686017,0.0016300831,144.91745,143.8036,37.74536,32.72209,54.059357,56.591404,0.23622748,1.1138381,34.78788
109.10972,0.008033796,0.0016927109,149.4275,148.22704,38.86641,32.977215,55.715256,58.357506,0.2529376,1.2004701,34.99603
112.47435,0.00837075,0.0017556062,154.03145,152.74208,39.999588,33.221626,57.42689,60.134193,0.27041855,1.2893587,35.194546
115.90286,0.008699242,0.0018172377,158.72821,157.34738,41.158585,33.458576,59.185097,61.89009,0.28844687,1.380815,35.386635
119.39772,0.009021276,0.0018803417,163.51588,162.04076,42.338356,33.680256,61.000225,63.683414,0.30746573,1.4751219,35.564472
122.96872,0.009338543,0.0019469121,168.39404,166.82149,43.527992,33.880936,62.875927,65.55587,0.3278484,1.5725551,35.72231
126.60081,0.00965245,0.0020146566,173.36328,171.6899,44.743195,34.06649,64.79593,67.45953,0.34926748,1.6733804,35.865997
130.29736,0.009964148,0.0020823139,178.42343,176.6456,45.980396,34.239594,66.763535,69.369156,0.3715336,1.7778375,35.99818
134.05783,0.010274577,0.0021500364,183.5744,181.68825,47.239784,34.399765,68.77725,71.28837,0.39469165,1.8861495,36.11837
137.90067,0.010584513,0.0022203117,188.8154,186.81688,48.501427,34.53996,70.8568,73.2686,0.41922906,1.998519,36.21949
141.80518,0.01089458,0.0022941665,194.14487,192.02974,49.784016,34.657158,72.97636,75.33044,0.44540063,2.1151268,36.298496
145.76353,0.011205273,0.0023697857,199.56421,197.32805,51.096897,34.756058,75.1369,77.43707,0.4729244,2.2361715,36.360077
149.78383,0.011516966,0.002447569,205.0714,202.70958,52.429623,34.83502,77.345184,79.59685,0.50192636,2.3618,36.402565
153.86765,0.011829941,0.0025271887,210.66714,208.17496,53.781208,34.89493,79.6013,81.803314,0.5323956,2.4921796,36.426834
158.01526,0.012144405,0.002607922,216.35455,213.72707,55.15444,34.93785,81.90067,84.0426,0.56423587,2.6274974,36.43492
162.21948,0.012460498,0.0026918799,222.13399,219.36609,56.556103,34.958458,84.23991,86.3566,0.597958,2.7679002,36.421494
166.48553,0.01277831,0.002779119,228.00513,225.09161,57.98051,34.956196,86.62546,88.746666,0.6336534,2.91352,36.385963
170.81163,0.013097883,0.0028686519,233.96707,230.90262,59.428608,34.93357,89.058945,91.19316,0.6711701,3.0644739,36.330826
175.20462,0.013419215,0.0029598004,240.02286,236.80194,60.896427,34.892433,91.54371,93.68344,0.7104197,3.2209182,36.25792
179.66441,0.013742269,0.0030524486,246.17293,242.78996,62.384422,34.833183,94.07627,96.2155,0.7514303,3.3829746,36.167625
184.19109,0.014066993,0.0031470838,252.41757,248.86684,63.892548,34.75441,96.65685,98.79935,0.7943793,3.5507567,36.05851
188.78001,0.014393308,0.003244002,258.75577,255.0314,65.424065,34.65522,99.2841,101.44094,0.8394041,3.7243512,35.929665
193.43419,0.014721122,0.00334334,265.18677,261.2829,66.975174,34.535038,101.960785,104.14339,0.8866095,3.9038465,35.780502
198.15385,0.015050325,0.003445168,271.71057,267.62125,68.54537,34.39364,104.68864,106.90838,0.9360886,4.089332,35.610783
202.93457,0.015380791,0.0035480491,278.3284,274.0475,70.14057,34.234882,107.46567,109.70877,0.9875228,4.280911,35.424355
207.78168,0.015712379,0.0036524704,285.04147,280.5628,71.75636,34.057564,110.29126,112.55461,1.0411055,4.4786797,35.219994
212.6844,0.01604495,0.003760265,291.85016,287.16742,73.403175,33.857067,113.16719,115.481094,1.0974339,4.682721,34.993065
217.66911,0.016378352,0.0038719587,298.7563,293.86316,75.05621,33.632366,116.11421,118.49825,1.156772,4.893136,34.74253
222.71593,0.016712423,0.003986625,305.76044,300.65045,76.73593,33.38578,119.110016,121.58899,1.2189523,5.109998,34.470703
227.82974,0.017046984,0.0041029165,312.86023,307.5269,78.43539,33.120457,122.15254,124.72846,1.2836393,5.3333235,34.180714
233.01762,0.017381856,0.0042198747,320.05405,314.4909,80.14618,32.83867,125.25097,127.89943,1.3505878,5.5631332,33.874817
238.27399,0.017716847,0.0043395045,327.34244,321.54297,81.87366,32.53556,128.40092,131.1399,1.4205041,5.7994766,33.54815
243.581,0.018051788,0.00446336,334.72754,328.68512,83.637085,32.207478,131.59453,134.47928,1.4940097,6.0424304,33.197044
248.93834,0.018386493,0.004590859,342.2096,335.91754,85.43705,31.856054,134.83578,137.90694,1.571036,6.2920337,32.823124
254.35522,0.018720753,0.004716504,349.7904,343.2421,87.26797,31.49503,138.12561,141.32219,1.6497878,6.54834,32.44011
259.8379,0.019054368,0.004840982,357.4707,350.65933,89.1239,31.122906,141.46707,144.73862,1.7305093,6.8113785,32.046494
265.39117,0.019387161,0.004966722,365.25302,358.1718,91.00163,30.73384,144.86261,148.20195,1.81411,7.0812187,31.636429
271.0179,0.019718958,0.0050931904,373.13843,365.78055,92.89963,30.32928,148.31451,151.70319,1.9004651,7.3579016,31.211348
276.71674,0.020049596,0.0052204453,381.1273,373.48584,94.819336,29.909231,151.82155,155.24397,1.9896541,7.6414475,30.771242
282.48102,0.020378904,0.005348842,389.21997,381.2881,96.76765,29.472744,155.37694,158.83199,2.0818763,7.9318767,30.315153
288.30264,0.02070673,0.005479999,397.4175,389.1883,98.752914,29.016161,158.99068,162.49709,2.1778474,8.229217,29.839418
294.1867,0.021032896,0.0056151887,405.71954,397.18613,100.76913,28.536356,162.67049,166.26332,2.2781918,8.533457,29.340893
300.15295,0.02135723,0.005749207,414.12424,405.27966,102.796646,28.046078,166.42651,170.03635,2.3808858,8.844546,28.83232
306.1964,0.02167954,0.0058838935,422.6334,413.4709,104.84166,27.540895,170.24121,173.85094,2.48673,9.1624975,28.30926
312.3103,0.02199965,0.0060193683,431.24557,421.7583,106.909294,27.020672,174.11375,177.70967,2.595826,9.487251,27.771566
318.50348,0.022317383,0.00616016,439.96225,430.14343,108.990234,26.474491,178.05229,181.69598,2.7102377,9.818807,27.208313
324.7599,0.022632577,0.006307459,448.78516,438.628,111.10145,25.899918,182.03638,185.83165,2.830694,10.157164,26.617054
331.08075,0.022945033,0.0064572436,457.71225,447.21,113.24145,25.306662,186.0636,190.0446,2.9555593,10.502222,26.00749
337.46515,0.023254534,0.006608124,466.74353,455.88965,115.4119,24.69822,190.13884,194.31047,3.084299,10.853904,25.383114
343.92545,0.02356085,0.0067590317,475.88065,464.66852,117.602356,24.077452,194.27489,198.61063,3.2164927,11.212153,24.746773
350.4522,0.023863781,0.0069111306,485.12186,473.54498,119.82003,23.441475,198.47076,202.96744,3.3527405,11.576842,24.095577
357.0592,0.024163127,0.007065931,494.47327,482.5253,122.056564,22.787199,202.74309,207.4089,3.493914,11.948021,23.42643
363.75528,0.024458705,0.0072227037,503.9347,491.60913,124.303085,22.116585,207.09518,211.92244,3.639771,12.32559,22.74128
370.51645,0.02475031,0.0073764063,513.5021,500.79272,126.582245,21.441486,211.50635,216.41815,3.7877998,12.709335,22.05198
377.31546,0.025037764,0.007534981,523.17346,510.07437,128.91551,20.74309,215.95091,221.04065,3.942102,13.099093,21.3397
384.18082,0.02532089,0.0076973373,532.9578,519.4629,131.28355,20.024675,220.45282,225.77057,4.102356,13.494966,20.60772
391.12845,0.025599508,0.007858666,542.8545,528.9577,133.67235,19.297684,225.01997,230.52237,4.2661123,13.89681,19.867472
398.14703,0.02587342,0.008019717,552.864,538.5595,136.0934,18.560469,229.65402,235.31044,4.433813,14.304482,19.117302
405.24054,0.026142444,0.008181116,562.9871,548.26935,138.54335,17.811743,234.35944,240.14708,4.605863,14.71786,18.355915
412.4051,0.026406407,0.008340367,573.2214,558.0846,141.0249,17.0574,239.11972,244.98808,4.7808766,15.136717,17.589195
419.646,0.026665159,0.0084963795,583.56866,568.0077,143.53572,16.300196,243.94609,249.81448,4.958221,15.560951,16.819902
426.9805,0.026918545,0.008656148,594.0327,578.04224,146.0581,15.52403,248.85248,254.75366,5.142035,15.990497,16.03192
434.39,0.02716645,0.008815044,604.60876,588.1837,148.60883,14.739765,253.81984,259.72287,5.329653,16.425074,15.236108
441.8855,0.027408725,0.008975625,615.29755,598.43304,151.17622,13.941642,258.86356,264.7693,5.5226793,16.864521,14.426698
449.4658,0.027645217,0.009142277,626.09906,608.7904,153.75888,13.119628,263.98273,269.9739,5.723971,17.308645,13.593655
457.1131,0.027875789,0.00930704,637.01337,619.2561,156.37961,12.292544,269.15973,275.19266,5.928709,17.75725,12.755793
464.85037,0.028100256,0.00947927,648.0355,629.82556,159.00491,11.43879,274.40796,280.59708,6.1429043,18.209965,11.891506
472.68713,0.028318448,0.009657963,659.1686,640.50195,161.62883,10.56107,279.72684,286.1702,6.3662252,18.66663,11.003491
480.59717,0.028530171,0.009833382,670.41235,651.28534,164.28386,9.682058,285.1021,291.7357,6.592421,19.126978,10.114421
488.5812,0.02873519,0.009999987,681.77203,662.1813,166.97826,8.814694,290.53638,297.193,6.817711,19.590849,9.237226
496.6333,0.028933331,0.010162061,693.24347,673.18555,169.71135,7.949144,296.01993,302.62097,7.044782,20.057842,8.362067
504.75116,0.029124472,0.010320401,704.8248,684.2972,172.48378,7.083853,301.55463,308.0341,7.2740755,20.527653,7.4873886
512.93555,0.029308518,0.010475192,716.5185,695.51843,175.29712,6.218513,307.15277,313.4367,7.505669,21.000093,6.6128726
521.20917,0.02948539,0.010623361,728.3255,706.85046,178.13225,5.360446,312.8285,318.77185,7.7372646,21.47496,5.7458386
529.577,0.029655013,0.010765425,740.25214,718.2999,180.99007,4.5086217,318.57916,324.04947,7.9691286,21.952187,4.8852515
538.0402,0.029817356,0.010900938,752.2986,729.86707,183.8706,3.664284,324.4031,329.26077,8.200761,22.431557,4.03235
546.60095,0.029972386,0.01102774,764.4643,741.5515,186.77287,2.8325863,330.30063,334.36496,8.430314,22.91282,3.1922834
555.2643,0.030104822,0.011137745,776.74493,753.36115,189.70618,2.0322757,336.26675,339.20923,8.651187,23.383766,2.383794
564.05914,0.030217413,0.011213082,789.13904,765.2933,192.65288,1.3047694,342.34723,343.45346,8.848681,23.84574,1.648295
572.99536,0.030312488,0.011251851,801.64105,777.3413,195.59941,0.6554425,348.5667,347.05133,9.019945,24.299734,0.9911573
582.0852,0.030392133,0.011203031,814.25586,789.50885,198.57878,0.20478177,354.97446,349.01086,9.122133,24.74697,0.53286314
591.233,0.030458255,0.01102893,826.9858,801.7972,201.72119,0.048300084,361.52997,348.55,9.120768,25.188543,0.3689216
600.48676,0.030512935,0.010812577,839.85175,814.2254,204.93478,0.0,368.24106,347.20557,9.080961,25.62634,0.31333125
609.8498,0.030558623,0.010580757,852.8562,826.7941,208.19615,0.0,375.08087,345.47388,9.023865,26.06211,0.30620688
619.32166,0.030597547,0.010353737,866.0041,839.5065,211.49281,0.0,382.02884,343.75082,8.966377,26.497599,0.29924443
628.90875,0.03063156,0.010131402,879.2911,852.357,214.81264,0.0,389.09726,342.0363,8.908451,26.93406,0.2924403
638.59924,0.030662097,0.009913702,892.7119,865.3394,218.16154,0.0,396.2674,340.3304,8.850079,27.372417,0.28579083
648.39105,0.030690258,0.009700501,906.26385,878.45044,221.53793,0.0,403.53336,338.63303,8.791214,27.813473,0.2792926
658.285,0.030716868,0.009491714,919.9457,891.6878,224.9392,0.0,410.90417,336.94406,8.731861,28.25785,0.27294213
668.2797,0.030742548,0.009287285,933.7627,905.0564,228.37122,0.0,418.38034,335.2635,8.67212,28.706244,0.26673612
678.36957,0.030767769,0.009087095,947.7153,918.55615,231.83955,0.0,425.9637,333.59137,8.611979,29.159082,0.26067114
688.5638,0.030792851,0.008891091,961.79956,932.183,235.33107,0.0,433.65857,331.92755,8.551446,29.61655,0.2547441
698.8515,0.030818028,0.008699142,976.01086,945.9321,238.8519,0.0,441.44992,330.27206,8.490458,30.078732,0.2489518
709.2059,0.030843465,0.008511213,990.34906,959.80334,242.42842,0.0,449.3249,328.6248,8.429071,30.545795,0.24329126
719.6599,0.030869264,0.008327193,1004.8177,973.7997,246.03076,0.0,457.2957,326.98578,8.367311,31.01798,0.23775938
730.21643,0.030895483,0.008147018,1019.4161,987.92065,249.65562,0.0,465.36548,325.35492,8.305201,31.49535,0.23235333
740.86884,0.030922147,0.007970612,1034.1432,1002.1651,253.30843,0.0,473.5274,323.73218,8.242753,31.977926,0.22707012
751.61664,0.030949265,0.0077978834,1048.9991,1016.53345,256.99,0.0,481.7829,322.11755,8.179973,32.46575,0.22190705
762.4589,0.030976828,0.007628773,1063.9841,1031.0253,260.70078,0.0,490.13434,320.51093,8.116893,32.958855,0.21686128
773.39734,0.031004801,0.0074631968,1079.0973,1045.6401,264.43896,0.0,498.59323,318.91235,8.053515,33.4572,0.21193029
784.42926,0.031033158,0.007301108,1094.3373,1060.3765,268.20532,0.0,507.15012,317.32178,7.989874,33.96074,0.20711152
795.5546,0.031061858,0.007142396,1109.7042,1075.2347,272.0003,0.0,515.80194,315.73907,7.925947,34.469475,0.20240226
806.7727,0.03109087,0.006987033,1125.1974,1090.214,275.82394,0.0,524.5484,314.1643,7.8617907,34.983364,0.1978001
818.07306,0.031120146,0.0068349256,1140.8165,1105.3142,279.68643,0.0,533.3833,312.59738,7.797396,35.502377,0.1933026
829.43524,0.031149652,0.006686021,1156.5613,1120.5348,283.60767,0.0,542.3103,311.0383,7.732793,36.02648,0.1889073
840.88904,0.03117935,0.0065402547,1172.4276,1135.872,287.55414,0.0,551.3309,309.487,7.6679745,36.55553,0.18461207
852.4368,0.0312092,0.0063975495,1188.4155,1151.3259,291.52362,0.0,560.44867,307.94345,7.602947,37.0895,0.1804144
864.07556,0.031239167,0.006257843,1204.5261,1166.8977,295.51984,0.0,569.6601,306.40747,7.5377355,37.62839,0.17631216
875.8085,0.031269226,0.006121089,1220.7587,1182.5864,299.53928,0.0,578.9723,304.87927,7.472372,38.172176,0.17230324
887.6391,0.03129935,0.005987226,1237.1143,1198.3933,303.57928,0.0,588.39343,303.35867,7.4068823,38.720867,0.16838545
899.5618,0.031329505,0.0058561843,1253.5929,1214.3184,307.64532,0.0,597.91675,301.84567,7.3412704,39.27444,0.16455683
911.5661,0.03135966,0.0057279174,1270.1946,1230.3617,311.7482,0.0,607.5335,300.34027,7.27557,39.832874,0.16081521
923.6679,0.031389814,0.005602369,1286.925,1246.5287,315.87735,0.0,617.2524,298.8423,7.2098293,40.39634,0.15715867
935.86304,0.031419933,0.0054794713,1303.7799,1262.8153,320.0327,0.0,627.06866,297.35178,7.144025,40.96468,0.15358528
948.1472,0.03145,0.0053591738,1320.7572,1279.2195,324.21667,0.0,636.9812,295.86874,7.0781674,41.53781,0.15009306
960.5032,0.03148,0.0052414304,1337.8568,1295.741,328.44635,0.0,646.9836,294.39304,7.0122833,42.115734,0.14668027
972.89825,0.03150993,0.005126192,1355.0786,1312.3801,332.7543,0.0,657.05225,292.92477,6.9463925,42.69843,0.14334513
985.3847,0.031539753,0.0050133946,1372.4269,1329.1409,337.09268,0.0,667.2189,291.46375,6.8805175,43.286003,0.14008576
997.9623,0.031569485,0.004902991,1389.9011,1346.0227,341.4608,0.0,677.4836,290.01004,6.814673,43.878464,0.13690053
1010.63043,0.031599104,0.004794941,1407.5007,1363.025,345.8589,0.0,687.84576,288.56363,6.748883,44.475765,0.13378775
1023.3917,0.031628605,0.004689195,1425.2249,1380.147,350.28342,0.0,698.3075,287.12442,6.683157,45.07787,0.13074575
1036.2595,0.03165797,0.0045856903,1443.0737,1397.389,354.7214,0.0,708.8805,285.69238,6.6174893,45.684784,0.12777293
1049.2234,0.03168721,0.0044844057,1461.0502,1414.7535,359.18582,0.0,719.55475,284.26752,6.5519414,46.2966,0.1248677
1062.2797,0.031716302,0.0043852776,1479.1538,1432.2404,363.67996,0.0,730.3295,282.8497,6.4865,46.91329,0.122028455
1075.4233,0.03174525,0.0042882636,1497.3818,1449.847,368.20642,0.0,741.21075,281.43893,6.421168,47.53476,0.11925388
1088.6506,0.031774063,0.0041933195,1515.7351,1467.5742,372.7695,0.0,752.20197,280.0353,6.355962,48.161064,0.1165423
1101.9525,0.031802714,0.0041004186,1534.2101,1485.4181,377.37463,0.0,763.27496,278.6386,6.2909036,48.792046,0.11389247
1115.3318,0.031831212,0.0040094946,1552.8032,1503.3756,382.01614,0.0,774.4365,277.2489,6.225956,49.42761,0.11130284
1128.8131,0.03185956,0.0039205244,1571.5187,1521.4507,386.6727,0.0,785.72375,275.86612,6.161177,50.067894,0.108772084
1142.3844,0.03188775,0.0038334571,1590.3573,1539.6444,391.35782,0.0,797.1097,274.4902,6.0965667,50.712917,0.1062988
1156.0366,0.03191578,0.0037482565,1609.3176,1557.955,396.07877,0.0,808.59344,273.12112,6.0321355,51.362625,0.10388178
1169.7681,0.031943657,0.0036648896,1628.3966,1576.3798,400.83438,0.0,820.17267,271.7589,5.9678936,52.01695,0.10151975
1183.6205,0.03197137,0.0035833125,1647.5944,1594.9183,405.5829,0.0,831.88226,270.40353,5.9038453,52.675846,0.09921143
1197.5463,0.031998917,0.0035034928,1666.9094,1613.5701,410.37067,0.0,843.68445,269.05487,5.8400054,53.339294,0.09695557
1211.5548,0.032026306,0.003425389,1686.3453,1632.338,415.1918,0.0,855.582,267.71292,5.7763886,54.007416,0.09475104
1225.6372,0.03205353,0.003348967,1705.9022,1651.222,420.0549,0.0,867.5717,266.3777,5.7130103,54.680187,0.092596605
1239.7916,0.0320806,0.0032741965,1725.5697,1670.2124,424.95212,0.0,879.6576,265.04916,5.649854,55.35731,0.0904912
1254.0154,0.032107502,0.0032010295,1745.3502,1689.3115,429.88867,0.0,891.83514,263.7271,5.5869174,56.038834,0.08843359
1268.3174,0.032134246,0.003129455,1765.2529,1708.5278,434.86374,0.0,904.10406,262.41183,5.524279,56.725067,0.086422846
1282.7063,0.032160833,0.0030594177,1785.2823,1727.8661,439.8734,0.0,916.4732,261.103,5.461924,57.416164,0.08445772
1297.1831,0.03218726,0.0029908943,1805.4346,1747.3226,444.91348,0.0,928.9439,259.80072,5.399864,58.111996,0.08253733
1311.7506,0.032213517,0.0029238581,1825.7101,1766.8976,449.98083,0.0,941.5402,258.5049,5.338117,58.812542,0.0806606
1326.401,0.03223962,0.0028582783,1846.1012,1786.5836,455.07608,0.0,954.23883,257.21564,5.276671,59.517597,0.07882659
1341.1357,0.032265566,0.0027941125,1866.6064,1806.3795,460.19653,0.0,967.0375,255.93274,5.215509,60.227116,0.07703425
1355.9602,0.03229136,0.0027313381,1887.2289,1826.2877,465.3394,0.0,979.9466,254.65625,5.1546607,60.941193,0.07528265
1370.8682,0.032316994,0.002669936,1907.9661,1846.3063,470.5087,0.0,992.9526,253.38615,5.094147,61.65972,0.073570944
1385.8588,0.03234248,0.0026098613,1928.817,1866.4343,475.70456,0.0,1006.05475,252.12239,5.0339446,62.382725,0.07189812
1400.9331,0.032367807,0.0025510928,1949.7834,1886.6732,480.9271,0.0,1019.2539,250.8649,4.974078,63.110214,0.070263304
1416.0852,0.03239298,0.0024936064,1970.8624,1907.0204,486.17996,0.0,1032.551,249.61372,4.9145555,63.84211,0.06866568
1431.3164,0.03241801,0.0024373673,1992.0562,1927.4778,491.46335,0.0,1045.9481,248.36877,4.855373,64.57849,0.067104384
1446.6309,0.032442883,0.0023823571,2013.3629,1948.0437,496.7719,0.0,1059.4431,247.12999,4.79655,65.319305,0.065578565
1462.0271,0.032467604,0.0023285467,2034.7822,1968.7177,502.1061,0.0,1073.0348,245.89742,4.7380857,66.06451,0.0640875
1477.5046,0.03249218,0.002275804,2056.3132,1989.4991,507.46683,0.00093077734,1086.722,244.6637,4.6797657,66.814095,0.06356107
1493.0626,0.032516606,0.0022241827,2077.9548,2010.3867,512.8527,0.0020890802,1100.5048,243.4342,4.6217513,67.56804,0.06329531
1508.698,0.03254089,0.002173716,2099.7078,2031.3813,518.2677,0.0030693687,1114.3789,242.2122,4.564168,68.32636,0.06288396
1524.4104,0.032565042,0.0021243698,2121.5708,2052.4817,523.7112,0.0038752027,1128.3436,240.99759,4.5070014,69.08904,0.062329706
1540.2008,0.03258905,0.002076113,2143.5415,2073.6853,529.17957,0.0046482533,1142.4022,239.78926,4.450234,69.85597,0.061773654
