con,Omega,ygross,ynet,inv,Eind,scc,Dam,Emissions
77.03697,0.0028556,105.17594,104.8756,27.720564,29.483345,41.20271,0.3003404,32.083344
79.498825,0.0035029713,108.64678,108.2662,28.63933,29.793364,42.353844,0.3805866,32.334248
82.03895,0.0041117165,112.21475,111.75336,29.576324,30.112228,43.554955,0.46139523,32.595337
84.66417,0.004678524,115.87722,115.33508,30.522642,30.434576,44.809525,0.54213434,32.861225
87.36136,0.005204256,119.632744,119.01014,31.49062,30.768845,46.11302,0.6225994,33.140316
90.13039,0.0056920177,123.478775,122.77594,32.476826,31.092802,47.46466,0.70284337,33.410355
92.97628,0.0061459863,127.41488,126.63178,33.475468,31.404692,48.867535,0.78309005,33.669548
95.894875,0.00657066,131.44096,130.57732,34.490356,31.70461,50.321598,0.86365396,33.91797
98.8816,0.0069704475,135.55176,134.6069,35.520046,31.984386,51.818962,0.9448564,34.14742
101.93384,0.0073494455,139.74727,138.7202,36.567303,32.253307,53.365955,1.027065,34.367157
105.05212,0.007711326,144.02794,142.91728,37.63137,32.50657,54.958145,1.1106464,34.572357
108.23131,0.008059322,148.39282,147.19688,38.716488,32.750225,56.59357,1.1959456,34.769043
111.475945,0.008396219,152.8395,151.55623,39.81436,32.96706,58.279686,1.283274,34.939976
114.77842,0.008724413,157.3699,155.99695,40.934975,33.171234,60.009953,1.37296,35.09929
118.14684,0.009045897,161.98372,160.51843,42.069786,33.365112,61.787094,1.4652882,35.249332
121.57471,0.00936235,166.67741,165.1169,43.221344,33.545002,63.60479,1.5604922,35.386375
125.06231,0.009675178,171.45074,169.79192,44.38858,33.706387,65.46668,1.6588163,35.505894
128.60924,0.009985542,176.30536,174.54485,45.573177,33.84796,67.37289,1.7605046,35.606552
132.21483,0.01029439,181.24086,179.37509,46.77531,33.972637,69.324776,1.865764,35.69124
135.87776,0.010602482,186.25621,184.28142,47.994858,34.076893,71.31946,1.974778,35.75642
139.6029,0.010910433,191.34937,189.26166,49.22487,34.16248,73.360985,2.0877044,35.803818
143.38773,0.011218719,196.52307,194.31834,50.470604,34.232723,75.44882,2.2047374,35.836742
147.22308,0.011527712,201.77649,199.45049,51.740204,34.28798,77.574066,2.3260212,35.855526
151.11491,0.0118377,207.10922,204.65753,53.02671,34.32197,79.74097,2.4516969,35.85388
155.06578,0.012148902,212.52245,209.9405,54.32859,34.33563,81.953476,2.5819142,35.8327
159.06679,0.012461465,218.01442,215.29762,55.6532,34.33247,84.20225,2.7167792,35.7955
163.12141,0.012775477,223.58545,220.72903,56.9965,34.30493,86.49784,2.8564107,35.734695
167.22829,0.013090989,229.23645,226.23552,58.36082,34.25579,88.837524,3.0009317,35.653046
171.39688,0.013408002,234.96953,231.81905,59.738926,34.18895,91.22502,3.150472,35.554432
175.6206,0.013726483,240.78374,237.47864,61.136543,34.10647,93.65867,3.305114,35.440907
179.90242,0.014046377,246.67812,243.2132,62.54959,34.00773,96.13894,3.4649339,35.31183
184.23698,0.014367612,252.65305,249.02301,63.983776,33.893723,98.659904,3.6300206,35.16817
188.62236,0.014690109,258.7077,254.90727,65.44008,33.7635,101.22223,3.8004446,35.00897
193.06075,0.01501378,264.84247,260.8662,66.91494,33.602432,103.828835,3.9762864,34.819584
197.55522,0.0153385205,271.0628,266.90512,68.4114,33.419907,106.48081,4.1577024,34.60938
202.11255,0.015664192,277.36444,273.0197,69.91892,33.221146,109.18765,4.34469,34.383575
206.72644,0.015990641,283.7491,279.2118,71.44552,33.006214,111.94235,4.5373306,34.142212
211.40106,0.016317716,290.21686,285.48117,72.986824,32.775112,114.74937,4.735676,33.885277
216.11884,0.016645268,296.7663,291.82654,74.559395,32.53061,117.59266,4.9397545,33.615536
220.89278,0.016973143,303.3995,298.24988,76.15191,32.270584,120.47993,5.1496434,33.33084
225.72386,0.0173012,310.11728,304.75186,77.764,31.995129,123.419846,5.365401,33.03128
230.61581,0.017629292,316.92142,311.3343,79.3939,31.706276,126.41294,5.5871005,32.718864
235.56677,0.01795727,323.80856,317.99384,81.03963,31.399847,129.45963,5.814718,32.389412
240.57646,0.018284997,330.77963,324.7313,82.70191,31.074036,132.56497,6.0483046,32.041103
245.63564,0.018612316,337.83572,331.5478,84.39192,30.73513,135.71112,6.2879047,31.680204
250.74861,0.018939069,344.97836,338.44482,86.10665,30.382416,138.90424,6.5335693,31.306004
255.90979,0.019265104,352.20886,345.42352,87.85228,30.012741,142.14133,6.7853413,30.91533
261.12543,0.019590273,359.52698,352.48376,89.62216,29.62438,145.42558,7.043232,30.506447
266.41013,0.019914417,366.93182,359.6246,91.39992,29.212631,148.76833,7.3072333,30.07464
271.75543,0.020237364,374.42725,366.84982,93.198845,28.785637,152.16177,7.5774207,29.628048
277.16385,0.020558937,382.01047,374.15677,95.01402,28.345448,155.60587,7.853729,29.168703
282.6293,0.02087896,389.68176,381.5456,96.851906,27.893194,159.09631,8.13615,28.697731
288.14804,0.021197256,397.44086,389.0162,98.7156,27.426575,162.63513,8.424656,28.212818
293.72662,0.02151367,405.28848,396.5692,100.59834,26.940838,166.22864,8.719243,27.709204
299.3654,0.021828039,413.22684,404.20688,102.502754,26.440968,169.8729,9.019931,27.191862
305.05402,0.022140186,421.25745,411.93073,104.44068,25.927809,173.56238,9.326718,26.66163
310.81146,0.022449946,429.37823,419.73874,106.391075,25.400736,177.31316,9.639519,26.117874
316.61795,0.022757156,437.58844,427.6302,108.37219,24.856096,181.11206,9.958269,25.556927
322.46585,0.023061655,445.89368,435.61063,110.39824,24.300518,184.95607,10.283047,24.985413
328.38593,0.023363272,454.28973,443.67603,112.43435,23.733774,188.86407,10.613694,24.403095
334.37363,0.023661844,462.77805,451.82785,114.48634,23.155085,192.83334,10.950182,23.809187
340.4263,0.02395722,471.3605,460.06805,116.55908,22.566113,196.85567,11.292488,23.205343
346.54666,0.02424925,480.03763,468.39706,118.65035,21.968164,200.9359,11.640553,22.592861
352.72577,0.024537781,488.8089,476.81458,120.76799,21.35712,205.07184,11.994285,21.967611
358.96396,0.024822684,497.67267,485.3191,122.908745,20.726389,209.26053,12.353572,21.323
365.26624,0.025103819,506.6311,493.91272,125.07174,20.086927,213.5051,12.718374,20.669975
371.62265,0.025381016,515.6829,502.59436,127.26647,19.44115,217.79582,13.088557,20.01094
378.05252,0.025654128,524.8302,511.36615,129.47452,18.784943,222.15787,13.464062,19.341776
384.54883,0.025923017,534.07263,520.2279,131.69731,18.09372,226.5902,13.844774,18.637892
391.1028,0.026187543,543.40875,529.17816,133.94623,17.386759,231.06349,14.230539,17.918558
397.70584,0.026447512,552.8383,538.21716,136.22922,16.66184,235.58052,14.6212,17.181547
404.3783,0.026702726,562.3629,547.3463,138.52875,15.925017,240.15842,15.016623,16.432907
411.1235,0.026952978,571.98535,556.5686,140.84593,15.183663,244.7966,15.416708,15.680004
417.9392,0.02719808,581.7037,565.88245,143.1803,14.432367,249.50313,15.821225,14.917423
424.82425,0.027437858,591.5139,575.28406,145.53067,13.677959,254.26459,16.229874,14.151986
431.767,0.027672164,601.41705,584.7745,147.90868,12.915966,259.07565,16.642511,13.379215
438.77634,0.02790085,611.4144,594.35547,150.3071,12.146667,263.94232,17.058983,12.599381
445.86243,0.0281238,621.5072,604.0281,152.71765,11.37358,268.87488,17.479145,11.816002
453.01852,0.028340878,631.6951,613.79224,155.14754,10.5987,273.86093,17.902794,11.031062
460.21335,0.028551968,641.9788,623.64905,157.61674,9.7772455,278.87878,18.32976,10.199777
467.47797,0.028756982,652.35876,633.5989,160.10603,8.952387,283.94757,18.759869,9.365311
474.81628,0.028955711,662.8332,643.6404,162.61171,8.129703,289.07043,19.192806,8.533237
482.21973,0.029147975,673.4033,653.77496,165.14377,7.3093605,294.24374,19.628342,7.7037196
489.6875,0.02933365,684.0692,664.003,167.70352,6.4917054,299.46326,20.066246,6.877098
497.21863,0.029512614,694.831,674.3247,170.2921,5.6759677,304.71448,20.506279,6.0525975
504.84293,0.029684791,705.68994,684.7417,172.88286,4.867734,310.04803,20.94826,5.2358003
512.5512,0.029850112,716.64246,695.2506,175.48181,4.066727,315.45074,21.39186,4.4264245
520.3531,0.029993296,727.6866,705.86084,178.09827,3.303067,320.91107,21.825718,3.6545856
528.2574,0.030117039,738.8246,716.57336,180.7253,2.5790439,326.4499,22.25121,2.9225695
536.2361,0.030223638,750.0574,727.3879,183.3939,1.9015944,332.05933,22.669462,2.237309
544.3084,0.030315088,761.37915,738.29785,186.07765,1.2677346,337.75317,23.081278,1.595816
552.4413,0.030393122,772.7962,749.30853,188.81754,0.68458885,343.5106,23.487688,1.0052104
560.68005,0.030459264,784.31323,760.4236,191.58264,0.1822522,349.37067,23.889605,0.49558344
569.0155,0.030514864,795.9286,771.641,194.46378,0.00836008,355.36963,24.287653,0.314567
577.4268,0.030561244,807.66,782.9768,197.44327,0.0,361.5,24.683092,0.29924443
585.9645,0.030600335,819.51587,794.4385,200.42519,0.0,367.7696,25.077461,0.2924403
594.6,0.03063411,831.4933,806.02124,203.43063,0.0,374.1334,25.47206,0.28579083
603.3326,0.030664112,843.5858,817.71796,206.4531,0.0,380.59503,25.86781,0.2792926
612.15045,0.030691532,855.7877,829.5223,209.49818,0.0,387.15277,26.265436,0.27294213
621.05005,0.030717257,868.0989,841.4333,212.56859,0.0,393.79065,26.665615,0.26673612
630.03015,0.030741964,880.5184,853.44946,215.66397,0.0,400.50513,27.068867,0.26067114
639.09015,0.030766143,893.0446,865.56903,218.78297,0.0,407.29828,27.475536,0.2547441
648.2361,0.030790169,905.6774,877.7914,221.91937,0.0,414.19104,27.885962,0.2489518
657.4637,0.030814286,918.41956,890.1191,225.07947,0.0,421.17145,28.300444,0.24329126
666.7694,0.030838678,931.26807,902.54895,228.26385,0.0,428.2356,28.719076,0.23775938
676.1533,0.030863449,944.2233,915.08136,231.47293,0.0,435.38635,29.14199,0.23235333
685.60254,0.030888671,957.2871,927.7178,234.72076,0.0,442.60968,29.569328,0.22707012
695.1153,0.030914374,970.45795,940.4569,238.00804,0.0,449.90482,30.0011,0.22190705
704.70844,0.03094056,983.7359,953.2986,241.31767,0.0,457.28354,30.437342,0.21686128
714.3841,0.030967226,997.12024,966.24225,244.64679,0.0,464.75153,30.87805,0.21193029
724.1396,0.03099434,1010.61237,979.2891,247.99962,0.0,472.30194,31.323263,0.20711152
733.9748,0.03102187,1024.2118,992.43884,251.37555,0.0,479.93494,31.772968,0.20240226
743.8908,0.031049784,1037.9167,1005.68964,254.77203,0.0,487.66483,32.227093,0.1978001
753.86865,0.031078037,1051.7253,1019.03986,258.20618,0.0,495.46762,32.68556,0.1933026
763.9216,0.031106587,1065.6338,1032.4856,261.66077,0.0,503.34833,33.14823,0.1889073
774.0488,0.031135399,1079.6416,1046.0265,265.1364,0.0,511.30603,33.61507,0.18461207
784.25226,0.031164426,1093.7491,1059.6632,268.6317,0.0,519.3609,34.086067,0.1804144
794.5296,0.031193627,1107.9572,1073.396,272.14923,0.0,527.5007,34.561203,0.17631216
804.8825,0.031222973,1122.2657,1087.2252,275.6877,0.0,535.72,35.04047,0.17230324
815.3106,0.03125243,1136.6743,1101.1505,279.24707,0.0,544.0185,35.523834,0.16838545
825.8141,0.031281967,1151.1835,1115.1722,282.82758,0.0,552.39655,36.011284,0.16455683
836.39276,0.031311553,1165.7927,1129.2899,286.4286,0.0,560.85425,36.50278,0.16081521
847.0298,0.031341165,1180.5016,1143.5033,290.06723,0.0,569.38226,36.9983,0.15715867
857.7143,0.03137078,1195.3127,1157.815,293.75644,0.0,577.9727,37.4979,0.15358528
868.4761,0.03140037,1210.2269,1172.2253,297.4672,0.0,586.6443,38.00157,0.15009306
879.31335,0.031429928,1225.243,1186.7336,301.20004,0.0,595.3969,38.509296,0.14668027
890.2257,0.03145943,1240.3601,1201.3391,304.95505,0.0,604.23035,39.021023,0.14334513
901.2128,0.031488862,1255.5784,1216.0416,308.7323,0.0,613.14435,39.536736,0.14008576
912.2709,0.03151821,1270.897,1230.8407,312.5349,0.0,622.13727,40.0564,0.13690053
923.39136,0.03154747,1286.3145,1245.7345,316.36987,0.0,631.19965,40.579964,0.13378775
934.58026,0.031576622,1301.8296,1260.7223,320.2301,0.0,640.33606,41.10738,0.13074575
945.8422,0.03160566,1317.4435,1275.8047,324.1121,0.0,649.5514,41.638668,0.12777293
957.178,0.031634573,1333.1548,1290.9811,328.0138,0.0,658.85223,42.173786,0.1248677
968.5669,0.031663366,1348.9651,1306.2524,331.9573,0.0,668.2273,42.712776,0.122028455
980.02765,0.031692017,1364.878,1321.6222,335.92712,0.0,677.6835,43.25574,0.11925388
991.5635,0.031720534,1380.893,1337.0905,339.92014,0.0,687.2225,43.80266,0.1165423
1003.17316,0.031748913,1397.0087,1352.6552,343.93546,0.0,696.8438,44.353504,0.11389247
1014.8495,0.031777143,1413.2247,1368.3164,347.98074,0.0,706.5466,44.90825,0.11130284
1026.6034,0.031805225,1429.5408,1384.074,352.04425,0.0,716.37115,45.466866,0.108772084
1038.4377,0.031833153,1445.9581,1399.9287,356.12436,0.0,726.2892,46.029404,0.1062988
1050.3353,0.03186093,1462.4669,1415.8715,360.22913,0.0,736.28326,46.595554,0.10388178
1062.2749,0.031888552,1479.0643,1431.8989,364.37625,0.0,746.332,47.165215,0.10151975
1074.2872,0.031916015,1495.7604,1448.0216,368.54565,0.0,756.4633,47.738712,0.09921143
1086.3647,0.03194332,1512.5546,1464.2385,372.74387,0.0,766.6774,48.31601,0.09695557
1098.5122,0.031970467,1529.4443,1480.5472,376.96365,0.0,776.97815,48.89705,0.09475104
1110.7612,0.031997457,1546.4297,1496.9479,381.17334,0.0,787.4056,49.481815,0.092596605
1123.0765,0.032024287,1563.5096,1513.4393,385.40747,0.0,797.92175,50.07028,0.0904912
1135.4641,0.032050956,1580.6805,1530.0182,389.65652,0.0,808.51886,50.66232,0.08843359
1147.9187,0.03207747,1597.9409,1546.6831,393.92407,0.0,819.19336,51.2579,0.086422846
1160.4089,0.03210383,1615.2941,1563.437,398.24475,0.0,829.9252,51.857124,0.08445772
1172.961,0.032130025,1632.7363,1580.2766,402.5891,0.0,840.73694,52.459858,0.08253733
1185.5818,0.032156073,1650.2722,1597.2059,406.9542,0.0,851.62885,53.06627,0.0806606
1198.2706,0.032181952,1667.9006,1614.2244,411.33966,0.0,862.60046,53.676296,0.07882659
1211.0283,0.03220768,1685.6205,1631.3306,415.74426,0.0,873.65796,54.289925,0.07703425
1223.8566,0.032233253,1703.4329,1648.5258,420.16644,0.0,884.8171,54.907185,0.07528265
1236.7686,0.032258675,1721.3337,1665.8057,424.5895,0.0,896.0788,55.527946,0.073570944
1249.7426,0.03228394,1739.3219,1683.1696,429.0343,0.0,907.4256,56.15216,0.07189812
1262.777,0.032309055,1757.3977,1700.6177,433.50226,0.0,918.85095,56.779858,0.070263304
1275.8237,0.03233402,1775.5594,1718.1486,438.04044,0.0,930.31006,57.410976,0.06866568
1288.9349,0.03235883,1793.8098,1735.7642,442.5986,0.0,941.8716,58.04558,0.067104384
1302.1417,0.03238349,1812.1487,1753.465,447.14594,0.0,953.5484,58.683697,0.065578565
1315.4084,0.032408,1830.5779,1771.2526,451.71936,0.0,965.3028,59.325363,0.0640875
1328.7344,0.032432366,1849.0962,1789.1256,456.31934,0.0,977.13336,59.970562,0.06263029
1342.1226,0.032456588,1867.704,1807.0847,460.94238,0.0,989.04266,60.6193,0.061206225
1355.5608,0.03248066,1886.3987,1825.1272,465.59845,0.0,1001.01886,61.271473,0.05981458
1369.0481,0.032504592,1905.1819,1843.2548,470.2902,0.0,1013.064,61.927166,0.0584545
1382.599,0.032528374,1924.0527,1861.4663,475.00174,0.0,1025.188,62.586304,0.0571254
1396.214,0.032552022,1943.0116,1879.7626,479.73343,0.0,1037.3915,63.248955,0.055826504
1409.8921,0.03257552,1962.0566,1898.1414,484.48453,0.0,1049.6725,63.915012,0.054557145
1423.632,0.032598883,1981.1866,1916.6023,489.25522,0.0,1062.0311,64.58447,0.05331663
1437.4346,0.03262211,2000.4023,1935.145,494.04486,0.0,1074.4674,65.25734,0.052104335
1451.2997,0.032645196,2019.7031,1953.7695,498.85318,0.0,1086.9813,65.9336,0.0509196
1465.225,0.032668144,2039.0868,1972.4739,503.68063,0.0,1099.5713,66.61318,0.049761795
1479.2047,0.03269096,2058.5542,1991.2583,508.53345,0.0,1112.2375,67.29612,0.048630323
1493.2228,0.03271364,2078.1055,2010.1232,513.428,0.0,1124.9772,67.9824,0.04752458
1507.2971,0.032736186,2097.741,2029.0688,518.3467,0.0,1137.7933,68.672035,0.04644402
1521.4329,0.032758605,2117.4617,2048.0967,523.28564,0.0,1150.6879,69.3651,0.045387972
1535.6293,0.03278089,2137.266,2067.2046,528.24365,0.0,1163.6597,70.06148,0.044355944
1549.8842,0.032803044,2157.1514,2086.3901,533.22046,0.0,1176.7067,70.76113,0.043347377
1564.1992,0.03282506,2177.1196,2105.6558,538.21643,0.0,1189.8302,71.46409,0.04236175
1578.5721,0.03284695,2197.1672,2124.997,543.23,0.0,1203.0349,72.17024,0.041398562
1593.0189,0.032868717,2217.2942,2144.4146,548.2454,0.0,1216.3461,72.879616,0.040457286
1607.5238,0.032890357,2237.5,2163.9077,553.2783,0.0,1229.732,73.59217,0.0395374
1622.0857,0.03291187,2257.784,2183.4758,558.32855,0.0,1243.1918,74.30789,0.038638443
1636.704,0.03293326,2278.1453,2203.1184,563.3962,0.0,1256.726,75.02676,0.037759893
1651.3798,0.032954525,2298.5845,2222.8357,568.48083,0.0,1270.3337,75.74876,0.0369013
1666.1233,0.032975674,2319.099,2242.6252,573.56934,0.0,1284.0435,76.473854,0.03606223
1680.9236,0.0329967,2339.6787,2262.4768,578.66266,0.0,1297.8276,77.201675,0.03524224
1695.7671,0.0330176,2360.3247,2282.3923,583.7767,0.0,1311.6754,77.93227,0.034440946
1710.6365,0.03303838,2381.0396,2302.374,588.93024,0.0,1325.5715,78.665695,0.03365783
1725.5308,0.033059042,2401.8242,2322.422,594.12524,0.0,1339.5153,79.402,0.03289253
1740.4797,0.03307959,2422.6838,2342.5422,599.33704,0.0,1353.5311,80.14139,0.032144625
1755.4807,0.03310002,2443.6157,2362.732,604.5656,0.0,1367.6194,80.88373,0.031413745
1770.5331,0.03312033,2464.6194,2382.9905,609.8114,0.0,1381.7827,81.629005,0.030699482
1785.6366,0.033140533,2485.6934,2403.3162,615.0728,0.0,1396.0151,82.377205,0.03000147
1800.7823,0.033160616,2506.838,2423.7095,620.35944,0.0,1410.309,83.12829,0.029319309
1815.9823,0.033180587,2528.0564,2444.1738,625.66223,0.0,1424.678,83.88239,0.028652666
1831.2401,0.033200443,2549.35,2464.7107,630.9793,0.0,1439.1299,84.63956,0.028001158
1846.5392,0.03322019,2570.7202,2485.3203,636.3273,0.0,1453.6587,85.39982,0.027364487
1861.8833,0.03323983,2592.1592,2505.9963,641.6963,0.0,1468.2577,86.16293,0.026742306
1877.277,0.03325935,2613.6672,2526.7385,647.0815,0.0,1482.9238,86.92888,0.026134232
1892.7195,0.033278767,2635.2422,2547.5444,652.4815,0.0,1497.6577,87.69761,0.025539985
1908.2097,0.03329807,2656.8826,2568.4133,657.8959,0.0,1512.4576,88.46906,0.02495924
1923.7466,0.03331727,2678.5874,2589.344,663.3251,0.0,1527.323,89.243225,0.024391735
1939.3323,0.033336364,2700.3582,2610.338,668.76843,0.0,1542.2556,90.02012,0.0238371
1954.9735,0.03335535,2722.1907,2631.391,674.21497,0.0,1557.2695,90.79962,0.02329513
1970.6606,0.033374235,2744.0864,2652.505,679.6758,0.0,1572.3483,91.58179,0.022765465
1986.3932,0.03339302,2766.044,2673.6772,685.14996,0.0,1587.4908,92.36657,0.02224785
2002.1721,0.0334117,2788.065,2694.9111,690.63794,0.0,1602.6984,93.15399,0.021741994
2017.9962,0.033430275,2810.1487,2716.2048,696.14056,0.0,1617.9697,93.94404,0.0212476
2033.853,0.033448745,2832.292,2737.5552,701.66724,0.0,1633.288,94.73661,0.020764455
2049.7412,0.033467118,2854.4949,2758.9631,707.21906,0.0,1648.651,95.53172,0.020292297
2065.6697,0.033485387,2876.7517,2780.4226,712.78217,0.0,1664.0728,96.32915,0.019830907
2081.6396,0.03350356,2899.0674,2801.938,718.3585,0.0,1679.5554,97.129074,0.019379998
2097.6255,0.033521634,2921.4385,2823.5068,723.9728,0.0,1695.0881,97.93138,0.01893933
2113.659,0.03353961,2943.8682,2845.132,729.5952,0.0,1710.6997,98.736206,0.018508693
2129.737,0.033557486,2966.3606,2866.817,735.23206,0.0,1726.3761,99.5436,0.018087855
2145.859,0.03357527,2988.9136,2888.5598,740.883,0.0,1742.1166,100.35358,0.017676596
2162.0159,0.03359295,3011.5261,2910.36,746.5562,0.0,1757.9131,101.16606,0.017274654
2178.2048,0.03361054,3034.1965,2932.2153,752.2515,0.0,1773.7639,101.98098,0.016881866
2194.436,0.033628035,3056.9238,2954.1255,757.95917,0.0,1789.676,102.79833,0.01649801
2210.7083,0.033645432,3079.7092,2976.0908,763.6806,0.0,1805.6489,103.61814,0.016122868
2227.02,0.033662744,3102.549,2998.1086,769.41486,0.0,1821.6808,104.440315,0.015756248
2243.3691,0.033679962,3125.441,3020.1765,775.1608,0.0,1837.7701,105.264725,0.015397999
2259.7556,0.033697087,3148.3848,3042.2932,780.91876,0.0,1853.9161,106.09139,0.015047898
2276.1807,0.03371412,3171.3816,3064.4612,786.6884,0.0,1870.12,106.920334,0.014705737
2292.6423,0.033731062,3194.4285,3086.6772,792.4694,0.0,1886.3792,107.751465,0.014371368
2309.1409,0.03374791,3217.5264,3108.9414,798.2613,0.0,1902.6945,108.5848,0.014044575
2325.6768,0.03376468,3240.6716,3131.2515,804.0614,0.0,1919.067,109.42024,0.013725246
2342.2527,0.033781353,3263.8645,3153.6064,809.8659,0.0,1935.5006,110.25776,0.013413157
