con,Omega,Theta,ygross,ynet,inv,Eind,scc,carbontax,Abatement,Dam,Emissions
77.9192,0.0028556,0.00054676906,105.17594,104.8756,26.89907,31.268734,26.951973,26.812153,0.057506952,0.3003404,33.868732
80.46549,0.0031533004,0.00059357315,108.596405,108.25396,27.724205,31.570663,27.634075,28.412663,0.064459905,0.3424371,34.111546
83.07431,0.003419871,0.00063610624,112.13302,111.74954,28.604141,31.896404,28.367693,29.870388,0.071328506,0.38348043,34.379513
85.85659,0.0036613524,0.0006781499,115.777596,115.35369,29.418873,32.22714,29.201925,31.302834,0.07851457,0.4239026,34.65379
88.71365,0.0038831127,0.00071832835,119.523636,119.0595,30.260326,32.56479,30.075289,32.67444,0.08585721,0.46412373,34.936264
91.63243,0.004089687,0.00075636426,123.371605,122.86704,31.141678,32.909172,30.988073,33.981575,0.09331387,0.5045513,35.226727
94.61226,0.004284808,0.0007934394,127.31987,126.77432,32.061485,33.254536,31.939245,35.260025,0.101020604,0.54554117,35.519394
97.65138,0.00447149,0.0008298014,131.3667,130.7793,33.019386,33.59865,32.938385,36.51841,0.109008275,0.5874049,35.81201
100.7742,0.004652139,0.0008659006,135.51653,134.8861,33.995087,33.94017,33.99609,37.770317,0.11734384,0.6304417,36.103207
104.010506,0.0048286514,0.0009028142,139.76881,139.09393,34.95784,34.274323,35.120434,39.045414,0.12618527,0.6748949,36.388172
107.306435,0.0050025173,0.0009394788,144.11382,143.3929,35.95174,34.60199,36.28165,40.315765,0.13539189,0.7209319,36.667778
110.672226,0.0051748916,0.0009768016,148.55275,147.78401,36.967422,34.91949,37.496002,41.606136,0.14510658,0.7687444,36.938305
114.100235,0.0053466726,0.0010166353,153.0838,152.26532,38.01029,35.219402,38.750668,42.96494,0.1556304,0.81848896,37.192318
117.587326,0.0055185435,0.001058329,157.71092,156.84059,39.08727,35.504517,40.042397,44.374588,0.16691005,0.8703346,37.43257
121.138336,0.0056910175,0.0011009062,162.43196,161.50757,40.191414,35.777344,41.371193,45.80974,0.17882234,0.9244031,37.66156
124.76539,0.0058644754,0.0011442216,167.24489,166.2641,41.308464,36.03738,42.740128,47.26706,0.19136523,0.9808035,37.87875
128.45891,0.006039203,0.0011885372,172.1511,171.11145,42.44918,36.283825,44.146236,48.75335,0.20460798,1.0396553,38.083332
132.20833,0.0062154057,0.0012346924,177.15082,176.04976,43.624077,36.513172,45.58548,50.290028,0.21872678,1.1010643,38.271763
136.02605,0.006393233,0.0012820674,182.24583,181.08067,44.82247,36.727837,47.062172,51.861286,0.23365144,1.16514,38.446438
139.91083,0.006572777,0.0013305167,187.43538,186.20341,46.04484,36.92761,48.575718,53.463856,0.2493859,1.2319709,38.607136
143.8697,0.0067540966,0.0013788554,192.71924,191.4176,47.283962,37.116405,50.129562,55.068737,0.265732,1.3016443,38.757744
147.91501,0.0069372216,0.0014296218,198.0971,196.72287,48.526623,37.284992,51.73645,56.73871,0.28320393,1.3742435,38.88901
152.02939,0.0071221646,0.0014823179,203.56786,202.11801,49.789024,37.43457,53.38792,58.461376,0.3017523,1.4498439,39.002117
156.21057,0.007308912,0.0015366477,209.12993,207.60143,51.07184,37.565746,55.08145,60.22944,0.321359,1.5285122,39.097652
160.45956,0.00749743,0.0015921666,214.78366,213.17334,52.374386,37.67979,56.820248,62.032425,0.3419714,1.6103253,39.17686
164.77487,0.0076876692,0.0016497744,220.52934,218.83398,53.698082,37.773678,58.600826,63.891872,0.36382365,1.6953565,39.23671
169.15233,0.007879574,0.0017070353,226.36823,224.58453,55.04883,37.85563,60.413986,65.75017,0.38641855,1.7836852,39.285397
173.59558,0.008073077,0.0017643479,232.30397,230.42854,56.4264,37.92492,62.270283,67.61741,0.409865,1.8754077,39.32218
178.10515,0.008268113,0.0018229241,238.33572,236.36514,57.82911,37.976776,64.16708,69.522934,0.43446794,1.9705868,39.342262
182.68282,0.0084646195,0.0018829878,244.46323,242.39394,59.25471,38.01041,66.10459,71.472145,0.46032128,2.0692883,39.34485
187.3301,0.008662529,0.0019446488,250.68576,248.51419,60.70084,38.025105,68.08128,73.46785,0.48749578,2.1715727,39.3292
192.05054,0.0088617625,0.0020079257,257.00305,254.72557,62.163548,38.020737,70.10446,75.51062,0.51604307,2.2775002,39.29518
196.8399,0.009062238,0.0020728721,263.41434,261.02722,63.646233,37.99684,72.1702,77.602,0.5460242,2.3871236,39.242306
201.69466,0.0092638675,0.0021401655,269.92023,267.4197,65.15274,37.951153,74.28248,79.75776,0.5776739,2.5005052,39.1683
206.61334,0.009466555,0.0022097656,276.52277,273.90506,66.68645,37.884136,76.430244,81.97691,0.6110504,2.617718,39.073612
211.59961,0.009670201,0.0022815086,283.2202,280.48138,68.241875,37.795994,78.620865,84.25592,0.64616936,2.7387962,38.95842
216.64928,0.009874698,0.0023551346,290.01147,287.1477,69.82216,37.68744,80.856026,86.589066,0.683016,2.8637755,38.823437
221.76912,0.010079936,0.0024317869,296.8957,293.90298,71.41917,37.554646,83.12942,89.00226,0.721987,2.9926896,38.66481
226.95567,0.010285804,0.002509063,303.87744,300.75183,73.04156,37.40614,85.43981,91.44168,0.7624477,3.125624,38.491062
232.21667,0.010492181,0.0025851503,310.96362,307.70093,74.688774,37.24871,87.80033,93.867485,0.80388767,3.2626867,38.30897
237.55522,0.010698962,0.0026628845,318.1549,314.75095,76.35757,37.072914,90.21162,96.34388,0.8472098,3.403927,38.109062
242.97333,0.010906048,0.0027433098,325.45065,321.9013,78.04488,36.875263,92.677284,98.89437,0.892812,3.5493808,37.887856
248.46329,0.0111133475,0.0028255149,332.84628,329.14725,79.753975,36.65817,95.189835,101.49905,0.9404622,3.6990364,37.647736
254.02246,0.011320756,0.0029096655,340.34253,336.48956,81.48806,36.421253,97.750305,104.16183,0.99028283,3.8529346,37.388317
259.64478,0.011528165,0.002996089,347.94104,343.9299,83.25468,36.16351,100.363365,106.890526,1.0424622,4.0111217,37.10858
265.34128,0.011735466,0.0030840654,355.6414,351.46777,85.04252,35.887436,103.02547,109.66953,1.0968212,4.1736174,36.811024
271.1123,0.011942548,0.0031735592,363.44388,359.10345,86.85154,35.59313,105.73705,112.49866,1.1534107,4.3404455,36.495716
276.95828,0.012149296,0.0032645278,371.34912,366.83746,88.681595,35.280823,108.49862,115.37751,1.2122794,4.51163,36.162888
282.87878,0.012355597,0.003356911,379.3573,374.6701,90.53359,34.95088,111.31043,118.30521,1.2734687,4.6871862,35.81289
288.86655,0.012561346,0.0034503336,387.46912,382.602,92.415306,34.60443,114.16358,121.27451,1.3368976,4.867133,35.44684
294.92105,0.012766432,0.0035428286,395.68567,390.6342,94.32915,34.248062,117.05807,124.243324,1.4018464,5.051494,35.07132
301.0453,0.01297075,0.0036347585,404.0091,398.76883,96.27411,33.880703,119.99784,127.220505,1.4684757,5.2403016,34.685238
307.24973,0.013174209,0.0037290135,412.44052,407.00693,98.23951,33.493378,122.989,130.26894,1.5379963,5.433578,34.279617
313.5273,0.013376726,0.0038248363,420.9759,415.3446,100.228676,33.08808,126.036224,133.37308,1.6101638,5.631279,33.856445
319.87646,0.013578206,0.0039228587,429.61737,423.784,102.24503,32.663265,129.13788,136.54677,1.6853284,5.833434,33.414158
326.30356,0.013778551,0.0040221317,438.36865,432.32855,104.28615,32.222126,132.29504,139.77054,1.7631764,6.040085,32.955948
332.80984,0.013977652,0.004122301,447.22995,440.97873,106.35101,31.766033,135.50769,143.03723,1.8436165,6.251225,32.483166
339.3958,0.014175406,0.004223289,456.20157,449.7347,108.43955,31.295221,138.77625,146.346,1.926671,6.4668417,31.996048
346.06705,0.014371715,0.004325962,465.284,458.59708,110.54617,30.807123,142.1116,149.716,2.012801,6.6869287,31.492016
352.82056,0.014566473,0.004432057,474.47693,467.5655,112.67265,30.296515,145.52463,153.18466,2.1029088,6.9114556,30.965836
359.6455,0.014759583,0.0045439717,483.78027,476.6399,114.82854,29.75601,148.99632,156.80379,2.198284,7.1403947,30.410116
366.54688,0.014950934,0.0046636863,493.1917,485.81802,117.00543,29.179754,152.51521,160.61545,2.3000915,7.3736763,29.818983
373.52164,0.015140379,0.004785241,502.7062,495.09503,119.20424,28.586163,156.08673,164.49347,2.4055703,7.611162,29.210857
380.57275,0.015327754,0.004908196,512.32605,504.47327,121.42445,27.97681,159.71324,168.42944,2.514597,7.8528085,28.587301
387.7071,0.015512907,0.0050312066,522.0522,513.9537,123.660774,27.355927,163.40215,172.39613,2.6265523,8.098547,27.952538
394.90735,0.015695704,0.0051553207,531.8853,523.53705,125.930664,26.72066,167.12402,176.41609,2.7420394,8.348314,27.303705
402.1873,0.015876025,0.0052800104,541.8265,533.22437,128.22166,26.072723,170.90372,180.47935,2.8608491,8.602051,26.642513
409.5477,0.016053762,0.0054051294,551.8765,543.01685,130.53409,25.412748,174.74191,184.58365,2.982964,8.8596945,25.969584
416.9889,0.016228808,0.0055305418,562.0359,552.91473,132.86795,24.741308,178.6392,188.72714,3.1083634,9.121173,25.285479
424.5058,0.016401075,0.0056572054,572.3058,562.9194,135.22899,24.055725,182.59158,192.93074,3.2376513,9.38643,24.587524
432.09344,0.016570468,0.0057861586,582.6877,573.0323,137.62315,23.353203,186.60677,197.21713,3.3715231,9.655407,23.87291
439.73114,0.016736902,0.005915725,593.18823,583.26013,140.07861,22.639118,190.68105,201.55197,3.5091386,9.928134,23.147009
447.45993,0.016900279,0.006039873,603.8062,593.6016,142.55643,21.931242,194.81989,205.80983,3.646913,10.204493,22.427584
455.27374,0.017060503,0.006163477,614.54254,604.0581,145.06126,21.215324,199.02313,210.0936,3.7877188,10.484405,21.70038
463.15237,0.017217526,0.006292542,625.3967,614.62897,147.60907,20.473867,203.29547,214.5305,3.9353354,10.767785,20.947895
471.15338,0.017371293,0.006427688,636.3598,625.3054,150.13272,19.705238,207.65793,219.13391,4.090322,11.054393,20.168488
479.22952,0.017521715,0.006563575,647.4208,636.07684,152.67244,18.924871,212.075,223.793,4.2493954,11.343923,19.377586
487.38205,0.017668674,0.0066998163,658.5817,646.9455,155.22899,18.134197,216.55446,228.50061,4.4123764,11.636265,18.57662
495.65833,0.017812058,0.0068419734,669.84375,657.9124,157.75269,17.317514,221.10751,233.3744,4.583053,11.931296,17.749876
504.01486,0.017951773,0.0069821575,681.209,668.98004,160.29427,16.49787,225.72488,238.2498,4.756308,12.228909,16.9204
512.46497,0.018087681,0.0071209837,692.6841,680.1551,162.8467,15.673744,230.4189,243.14084,4.9325924,12.52905,16.086668
520.9989,0.018219698,0.007256179,704.27094,691.4393,165.4232,14.85191,235.1905,248.00015,5.110316,12.831603,15.255444
529.6116,0.018347738,0.007397333,715.9698,702.8334,168.02269,14.005195,240.07645,253.03076,5.296267,13.136426,14.399552
538.2669,0.018471751,0.007544174,727.77747,714.33417,170.67816,13.134791,244.98569,258.22772,5.4904795,13.443324,13.520184
546.97125,0.018591644,0.0076949806,739.7014,725.94916,173.39171,12.245938,249.91676,263.55646,5.691988,13.752265,12.622568
555.7619,0.018707305,0.0078412015,751.74744,737.6843,176.138,11.362988,254.90784,268.8376,5.8946037,14.063168,11.731054
564.65045,0.018818606,0.007985575,763.9209,749.54486,178.90889,10.478398,259.98,274.12958,6.1003475,14.375926,10.838095
573.6247,0.0189147,0.008124216,776.22363,761.5416,181.73,9.603076,265.11328,279.35098,6.3062086,14.682037,9.954595
582.68567,0.018998101,0.008254536,788.65814,773.6752,184.60316,8.744211,270.3066,284.44736,6.5100074,14.983008,9.087737
591.82635,0.019070731,0.008377623,801.221,785.9411,187.5305,7.898722,275.5533,289.44165,6.7123275,15.279871,8.234437
601.03094,0.019134078,0.008498631,813.9065,798.3331,190.51744,7.052468,280.8489,294.44287,6.917091,15.57335,7.3805494
610.3284,0.019189304,0.008614226,826.71735,810.8532,193.53989,6.2147374,286.21307,299.3807,7.12153,15.86413,6.535359
619.7235,0.019237272,0.0087107485,839.6536,823.50104,196.60423,5.423441,291.657,303.96124,7.3140125,16.152645,5.736772
629.22974,0.019278653,0.008785063,852.7194,836.2801,199.70354,4.6875157,297.1773,308.1126,7.491194,16.439281,4.9937224
638.85626,0.019314049,0.00884444,865.92035,849.19586,202.82901,3.9873145,302.78763,311.98587,7.658581,16.724428,4.2865586
648.60474,0.01934403,0.008899117,879.257,862.2486,205.97067,3.2947724,308.49747,315.80005,7.82461,17.008373,3.5872128
658.46356,0.01936908,0.008944386,892.7261,875.43475,209.14093,2.6234274,314.29736,319.4494,7.984885,17.291283,2.9092183
668.439,0.01938957,0.008977061,906.3226,888.7493,212.332,1.9825342,320.2099,322.8609,8.136113,17.573206,2.2618268
678.53595,0.019405818,0.00899297,920.0437,902.18945,215.54019,1.3845108,326.24927,325.93597,8.273926,17.854198,1.657453
688.8218,0.01941811,0.00896334,933.88715,915.75287,218.7228,0.9122298,332.52057,328.01804,8.370748,18.134323,1.1789659
699.24243,0.019426733,0.008903398,947.83356,929.4202,221.90277,0.5252202,338.89554,329.42517,8.438939,18.413307,0.78589135
709.74115,0.019432165,0.008824608,961.885,943.19354,225.12917,0.19310457,345.30487,330.39795,8.488259,18.691507,0.4478487
720.3063,0.019434918,0.008699142,976.0405,957.07117,228.43922,0.0,351.7741,330.27206,8.490715,18.969269,0.2489518
730.9775,0.019435465,0.008511213,990.323,971.0756,231.83311,0.0,358.30087,328.6248,8.428849,19.247389,0.24329126
741.70074,0.019434433,0.008327193,1004.7319,985.2055,235.30075,0.0,364.84433,326.98578,8.366596,19.526394,0.23775938
752.47894,0.019432662,0.008147018,1019.2652,999.4581,238.8366,0.0,371.42276,325.35492,8.303972,19.807035,0.23235333
763.3557,0.01943073,0.007970612,1033.9272,1013.8373,242.40071,0.0,378.07797,323.73218,8.241033,20.089962,0.22707012
774.3521,0.01942902,0.0077978834,1048.7222,1028.3466,245.9755,0.0,384.83017,322.11755,8.177813,20.375645,0.22190705
785.45276,0.019427773,0.007628773,1063.658,1042.9934,249.58394,0.0,391.65762,320.51093,8.114406,20.664507,0.21686128
796.64606,0.019427128,0.0074631968,1078.7369,1057.7802,253.23965,0.0,398.55606,318.91235,8.050826,20.95676,0.21193029
807.9146,0.019427154,0.007301108,1093.9545,1072.7021,256.95557,0.0,405.50983,317.32178,7.9870796,21.252422,0.20711152
819.27783,0.019427875,0.007142396,1109.3135,1087.762,260.71478,0.0,412.54364,315.73907,7.9231567,21.551603,0.20240226
830.7396,0.01942927,0.006987033,1124.8079,1102.9537,264.50775,0.0,419.66327,314.1643,7.85907,21.854195,0.1978001
842.2987,0.019431315,0.0068349256,1140.4368,1118.2766,268.33453,0.0,426.8657,312.59738,7.7948003,22.160187,0.1933026
853.955,0.019433971,0.006686021,1156.1974,1133.7279,272.19272,0.0,434.15015,311.0383,7.7303596,22.469505,0.1889073
865.7086,0.019437177,0.0065402547,1172.0886,1149.3065,276.08124,0.0,441.5169,309.487,7.665758,22.782093,0.18461207
877.5732,0.019440882,0.0063975495,1188.1104,1165.0125,279.986,0.0,448.97418,307.94345,7.600995,23.097914,0.1804144
889.539,0.019445032,0.006257843,1204.2627,1180.8457,283.91714,0.0,456.50473,306.40747,7.536087,23.416927,0.17631216
901.60315,0.019449571,0.006121089,1220.5466,1196.8075,287.8786,0.0,464.1062,304.87927,7.4710746,23.739109,0.17230324
913.7666,0.019454453,0.005987226,1236.9675,1212.903,291.87448,0.0,471.79852,303.35867,7.406004,24.064528,0.16838545
926.03015,0.01945963,0.0058561843,1253.5278,1229.1346,295.90652,0.0,479.57764,301.84567,7.3408904,24.393187,0.16455683
938.3954,0.019465055,0.0057279174,1270.2263,1245.5013,299.9717,0.0,487.4452,300.34027,7.275751,24.725025,0.16081521
950.86194,0.019470695,0.005602369,1287.0625,1262.0026,304.0704,0.0,495.4007,298.8423,7.210599,25.060001,0.15715867
963.4146,0.019476512,0.0054794713,1304.0358,1278.6376,308.21686,0.0,503.4416,297.35178,7.1454268,25.398071,0.15358528
976.059,0.01948247,0.0053591738,1321.1439,1295.4047,312.4033,0.0,511.56714,295.86874,7.0802393,25.739143,0.15009306
988.8005,0.019488545,0.0052414304,1338.3827,1312.2994,316.6206,0.0,519.7766,294.39304,7.015039,26.083128,0.14668027
1001.6381,0.019494709,0.005126192,1355.751,1329.321,320.86856,0.0,528.0699,292.92477,6.9498396,26.42997,0.14334513
1014.5723,0.019500943,0.0050133946,1373.2494,1346.4697,325.14694,0.0,536.44727,291.46375,6.884641,26.779655,0.14008576
1027.6025,0.019507222,0.004902991,1390.8767,1363.7445,329.4555,0.0,544.90845,290.01004,6.819456,27.132141,0.13690053
1040.7284,0.019513534,0.004794941,1408.6329,1381.1454,333.79453,0.0,553.453,288.56363,6.754311,27.487406,0.13378775
1053.9573,0.019519858,0.004689195,1426.5167,1398.6714,338.15536,0.0,562.086,287.12442,6.6892157,27.845404,0.13074575
1067.2909,0.019526182,0.0045856903,1444.5298,1416.3236,342.5378,0.0,570.80914,285.69238,6.624166,28.20615,0.12777293
1080.7216,0.019532494,0.0044844057,1462.6729,1434.1033,346.95068,0.0,579.61865,284.26752,6.5592194,28.569653,0.1248677
1094.2494,0.019538783,0.0043852776,1480.9468,1452.011,351.39413,0.0,588.51385,282.8497,6.4943633,28.9359,0.122028455
1107.8724,0.019545037,0.0042882636,1499.3488,1470.044,355.86755,0.0,597.4938,281.43893,6.429602,29.304827,0.11925388
1121.5922,0.01955126,0.0041933195,1517.8801,1488.2037,360.371,0.0,606.55927,280.0353,6.364956,29.676468,0.1165423
1135.4067,0.01955744,0.0041004186,1536.5385,1506.4878,364.90387,0.0,615.7092,278.6386,6.300451,30.050758,0.11389247
1149.2933,0.019563567,0.0040094946,1555.3245,1524.8967,369.48947,0.0,624.9016,277.2489,6.2360644,30.427694,0.11130284
1163.2637,0.01956964,0.0039205244,1574.2378,1543.4307,374.116,0.0,634.15155,275.86612,6.171838,30.807266,0.108772084
1177.338,0.019575654,0.0038334571,1593.2794,1562.0898,378.76364,0.0,643.48956,274.4902,6.107768,31.189484,0.1062988
1191.5065,0.019581608,0.0037482565,1612.4465,1580.8723,383.44028,0.0,652.9085,273.12112,6.0438633,31.5743,0.10388178
1205.7678,0.019587496,0.0036648896,1631.7389,1599.7772,388.14636,0.0,662.40875,271.7589,5.980143,31.96168,0.10151975
1220.1232,0.019593315,0.0035833125,1651.1575,1618.8058,392.88187,0.0,671.99225,270.40353,5.916613,32.35165,0.09921143
1234.5713,0.019599065,0.0035034928,1670.7008,1637.9567,397.6468,0.0,681.658,269.05487,5.853288,32.744175,0.09695557
1249.1082,0.01960474,0.003425389,1690.3688,1657.2295,402.44482,0.0,691.38837,267.71292,5.7901707,33.13924,0.09475104
1263.7335,0.01961035,0.003348967,1710.156,1676.6193,407.27084,0.0,701.1931,266.3777,5.7272563,33.53676,0.092596605
1278.4473,0.019615885,0.0032741965,1730.0602,1696.1235,412.1228,0.0,711.0759,265.04916,5.664557,33.93666,0.0904912
1293.2505,0.01962134,0.0032010295,1750.0825,1715.7435,417.00098,0.0,721.0379,263.7271,5.602065,34.338966,0.08843359
1308.1227,0.019626722,0.003129455,1770.2211,1735.4774,421.9236,0.0,731.0514,262.41183,5.5398273,34.743637,0.086422846
1323.0759,0.019632025,0.0030594177,1790.482,1755.3312,426.885,0.0,741.13135,261.103,5.4778323,35.15079,0.08445772
1338.1216,0.019637255,0.0029908943,1810.867,1775.3064,431.8752,0.0,751.2948,259.80072,5.4161115,35.56046,0.08253733
1353.2587,0.019642409,0.0029238581,1831.3755,1795.403,436.89474,0.0,761.5397,258.5049,5.354682,35.97263,0.0806606
1368.4865,0.019647487,0.0028582783,1852.0068,1815.6195,441.94363,0.0,771.8665,257.21564,5.293551,36.38728,0.07882659
1383.8021,0.019652488,0.0027941125,1872.7598,1835.9553,447.02332,0.0,782.2709,255.93274,5.2327013,36.804386,0.07703425
1399.1907,0.019657414,0.0027313381,1893.6354,1856.4114,452.15018,0.0,792.72705,254.65625,5.1721587,37.223976,0.07528265
1414.6708,0.019662267,0.002669936,1914.6359,1876.9896,457.3075,0.0,803.2662,253.38615,5.111955,37.64608,0.073570944
1430.2417,0.019667037,0.0026098613,1935.7605,1897.6901,462.49554,0.0,813.8878,252.12239,5.052067,38.070675,0.07189812
1445.8947,0.019671736,0.0025510928,1957.0095,1918.5117,467.72284,0.0,824.579,250.8649,4.9925127,38.497776,0.070263304
1461.6317,0.01967636,0.0024936064,1978.3792,1939.4519,472.98398,0.0,835.3443,249.61372,4.9332995,38.927303,0.06866568
1477.4579,0.019680915,0.0024373673,1999.8702,1960.511,478.27466,0.0,846.1898,248.36877,4.8744187,39.35928,0.067104384
1493.372,0.0196854,0.0023823571,2021.4806,1981.6871,483.59393,0.0,857.115,247.12999,4.815889,39.793655,0.065578565
1509.3734,0.01968981,0.0023285467,2043.2092,2002.9791,488.94168,0.0,868.11896,245.89742,4.7577085,40.230404,0.0640875
1525.4598,0.019694148,0.0022759147,2065.0564,2024.3868,494.31964,0.0,879.20483,244.671,4.699892,40.669525,0.06263029
1541.6305,0.019698419,0.0022244274,2087.0208,2045.9098,499.72827,0.0,890.3599,243.45068,4.642426,41.111008,0.061206225
1557.8875,0.019702617,0.00217407,2109.1038,2067.5488,505.1664,0.0,901.58887,242.2365,4.585339,41.554863,0.05981458
1574.2311,0.019706747,0.0021248101,2131.305,2089.3037,510.63327,0.0,912.8968,241.02832,4.528618,42.001087,0.0584545
